637951363306339288;231.4347;31;0;2.5;0.3;1.4;1300;1.92307692307692;-0.2394138;0.8422151;-0.2106337;0.8226892;0;2.2;0.04276554;2.147176;
637951363318321980;232.634;31;0;2.5;0.3;1.4;1199;2.08507089241034;0.4499513;2.036231;0.4006729;2.057253;-0.2394138;0.8422151;-0.2106337;0.8226892;
637951363333314775;234.1333;31;0;2.5;0.3;1.4;1499;1.66777851901268;-0.6062176;1.15;-0.5373802;1.135784;0.4499513;2.036231;0.4006729;2.057253;
637951363351368825;235.938;31;0;2.5;0.3;1.4;1805;1.38504155124654;0.6893654;1.621554;0.6580257;1.570716;-0.6062176;1.15;-0.5373802;1.135784;
637951363362361305;237.0375;31;0;2.5;0.3;1.4;1100;2.27272727272727;-0.6893655;1.621553;-0.6627322;1.579404;0.6893654;1.621554;0.6580257;1.570716;
637951363373303759;238.1316;31;0;2.5;0.3;1.4;1094;2.28519195612431;0.6062179;1.15;0.5362443;1.143702;-0.6893655;1.621553;-0.6627322;1.579404;
637951363384406251;239.2422;31;0;2.5;0.3;1.4;1111;2.25022502250225;-0.4499517;2.036231;-0.3517913;1.980877;0.6062179;1.15;0.5362443;1.143702;
637951363402400293;241.0413;31;0;2.5;0.3;1.4;1799;1.38966092273485;0.2394144;0.8422153;0.2322909;0.9213065;-0.4499517;2.036231;-0.3517913;1.980877;
637951363433387251;244.1402;31;0;4.5;0.1;2.2;1600;2.8125;-0.3762217;0.4663379;-0.3695428;0.4688598;0;2.6;0.01542657;2.574203;
637951363462363761;247.0384;31;0;4.5;0.1;2.2;2898;1.5527950310559;0.7070663;2.342649;0.6861657;2.333025;-0.3762217;0.4663379;-0.3695428;0.4688598;
637951363483358474;249.1375;31;0;4.5;0.1;2.2;2099;2.14387803716055;-0.9526277;0.9499994;-0.9435769;0.9801799;0.7070663;2.342649;0.6861657;2.333025;
637951363502462771;251.0475;31;0;4.5;0.1;2.2;1910;2.35602094240838;1.083289;1.691013;1.072089;1.678802;-0.9526277;0.9499994;-0.9435769;0.9801799;
637951363523507495;253.1519;31;0;4.5;0.1;2.2;2104;2.13878326996198;-1.083289;1.691012;-1.057861;1.705619;1.083289;1.691013;1.072089;1.678802;
637951363539501078;254.7513;31;0;4.5;0.1;2.2;1599;2.81425891181989;0.9526281;0.9500003;0.9473507;0.9895353;-1.083289;1.691012;-1.057861;1.705619;
637951363557435105;256.5452;31;0;4.5;0.1;2.2;1794;2.50836120401338;-0.7070671;2.342648;-0.7099229;2.319875;0.9526281;0.9500003;0.9473507;0.9895353;
637951363574478943;258.2496;31;0;4.5;0.1;2.2;1704;2.64084507042254;0.3762226;0.4663382;0.3657603;0.4853363;-0.7070671;2.342648;-0.7099229;2.319875;
637951363596529827;260.4546;31;0;2;0.6;1.8;1211;1.65152766308836;-0.3078177;0.6542765;-0.2171772;0.8055897;0;2.4;0.03168124;2.264617;
637951363613519967;262.1536;31;0;2;0.6;1.8;1699;1.17716303708064;0.5785087;2.18944;0.4699301;2.184225;-0.3078177;0.6542765;-0.2171772;0.8055897;
637951363627513112;263.5531;31;0;2;0.6;1.8;1400;1.42857142857143;-0.7794226;1.05;-0.6772051;1.111925;0.5785087;2.18944;0.4699301;2.184225;
637951363637505358;264.5525;31;0;2;0.6;1.8;999;2.002002002002;0.8863269;1.656283;0.8380203;1.584219;-0.7794226;1.05;-0.6772051;1.111925;
637951363646506631;265.4521;31;0;2;0.6;1.8;900;2.22222222222222;-0.8863271;1.656283;-0.860083;1.734914;0.8863269;1.656283;0.8380203;1.584219;
637951363657611277;266.5629;31;0;2;0.6;1.8;1111;1.8001800180018;0.779423;1.05;0.6949846;1.159141;-0.8863271;1.656283;-0.860083;1.734914;
637951363668605170;267.6622;31;0;2;0.6;1.8;1099;1.81983621474067;-0.5785094;2.18944;-0.4825229;2.133596;0.779423;1.05;0.6949846;1.159141;
637951363677657238;268.5669;31;0;2;0.6;1.8;905;2.20994475138122;0.3078185;0.6542768;0.3270733;0.8968221;-0.5785094;2.18944;-0.4825229;2.133596;
637951363701572609;270.9591;31;0;4;0.1;1.4;1298;3.08166409861325;-0.2394138;0.8422151;-0.2092053;0.8710589;0;2.2;-0.01572605;2.166541;
637951363713585312;272.1601;31;0;4;0.1;1.4;1201;3.33055786844296;0.4499513;2.036231;0.4112226;2.015135;-0.2394138;0.8422151;-0.2092053;0.8710589;
637951363725638009;273.3647;31;0;4;0.1;1.4;1205;3.3195020746888;-0.6062176;1.15;-0.5617296;1.170233;0.4499513;2.036231;0.4112226;2.015135;
637951363746682744;275.4698;31;0;4;0.1;1.4;2105;1.90023752969121;0.6893654;1.621554;0.6906212;1.642812;-0.6062176;1.15;-0.5617296;1.170233;
637951363759675658;276.7691;31;0;4;0.1;1.4;1299;3.07929176289453;-0.6893655;1.621553;-0.641708;1.617827;0.6893654;1.621554;0.6906212;1.642812;
637951363772668577;278.0684;31;0;4;0.1;1.4;1299;3.07929176289453;0.6062179;1.15;0.5668058;1.130518;-0.6893655;1.621553;-0.641708;1.617827;
637951363786661725;279.4677;31;0;4;0.1;1.4;1399;2.85918513223731;-0.4499517;2.036231;-0.4060069;2.024014;0.6062179;1.15;0.5668058;1.130518;
637951363795663737;280.3676;31;0;4;0.1;1.4;900;4.44444444444444;0.2394144;0.8422153;0.2358391;0.8575864;-0.4499517;2.036231;-0.4060069;2.024014;
637951363812647556;282.0664;31;0;1.5;1.1;2;899;1.66852057842047;-0.3420197;0.5603072;-0.3356417;0.9753451;0;2.5;-0.003920348;2.294086;
637951363819699145;282.7716;31;0;1.5;1.1;2;705;2.12765957446809;0.6427875;2.266045;0.460169;2.053614;-0.3420197;0.5603072;-0.3356417;0.9753451;
637951363826650704;283.4664;31;0;1.5;1.1;2;695;2.15827338129496;-0.8660251;0.9999995;-0.8735753;1.349349;0.6427875;2.266045;0.460169;2.053614;
637951363839633619;284.7652;31;0;1.5;1.1;2;1299;1.15473441108545;0.9848077;1.673648;0.5640978;1.631618;-0.8660251;0.9999995;-0.8735753;1.349349;
637951363849635864;285.7652;31;0;1.5;1.1;2;1000;1.5;-0.9848078;1.673648;-0.7995217;1.761181;0.9848077;1.673648;0.5640978;1.631618;
637951363860628334;286.8645;31;0;1.5;1.1;2;1099;1.36487716105551;0.8660256;1;0.7227534;1.229215;-0.9848078;1.673648;-0.7995217;1.761181;
637951363869620354;287.764;31;0;1.5;1.1;2;900;1.66666666666667;-0.6427882;2.266044;-0.3086448;2.062249;0.8660256;1;0.7227534;1.229215;
637951363879622600;288.7636;31;0;1.5;1.1;2;1000;1.5;0.3420205;0.5603075;0.2328839;0.9879023;-0.6427882;2.266044;-0.3086448;2.062249;
637951363911629795;291.9632;31;0;3.5;0.2;2;1301;2.6902382782475;-0.3420197;0.5603072;-0.2588923;0.5729017;0;2.5;0.0271467;2.441095;
637951363919071460;292.7164;31;0;3.5;0.2;2;753;4.64807436918991;0.6427875;2.266045;0.6396415;2.16696;-0.3420197;0.5603072;-0.2588923;0.5729017;
637951363930704073;293.8726;31;0;3.5;0.2;2;1156;3.02768166089965;-0.8660251;0.9999995;-0.8357582;1.048686;0.6427875;2.266045;0.6396415;2.16696;
637951363946697660;295.4718;31;0;3.5;0.2;2;1599;2.18886804252658;0.9848077;1.673648;0.9229644;1.685989;-0.8660251;0.9999995;-0.8357582;1.048686;
637951363958689551;296.6709;31;0;3.5;0.2;2;1199;2.91909924937448;-0.9848078;1.673648;-0.8962014;1.672008;0.9848077;1.673648;0.9229644;1.685989;
637951363986681386;299.4695;31;0;3.5;0.2;2;2799;1.25044658806717;0.8660256;1;0.8108809;1.05747;-0.9848078;1.673648;-0.8962014;1.672008;
637951364017664716;302.568;31;0;3.5;0.2;2;3098;1.12976113621691;-0.6427882;2.266044;-0.6126879;2.221069;0.8660256;1;0.8108809;1.05747;
637951364030770751;303.8787;31;0;3.5;0.2;2;1311;2.6697177726926;0.3420205;0.5603075;0.336456;0.5286235;-0.6427882;2.266044;-0.6126879;2.221069;
637951364053765982;306.1777;31;0;3;0.2;1.4;1200;2.5;-0.2394138;0.8422151;-0.1972923;0.8642982;0;2.2;0.01036662;2.201396;
637951364064748445;307.2769;31;0;3;0.2;1.4;1099;2.72975432211101;0.4499513;2.036231;0.3984836;2.019169;-0.2394138;0.8422151;-0.1972923;0.8642982;
637951364074750693;308.2767;31;0;3;0.2;1.4;1000;3;-0.6062176;1.15;-0.6290803;1.185609;0.4499513;2.036231;0.3984836;2.019169;
637951364084742942;309.2761;31;0;3;0.2;1.4;999;3.003003003003;0.6893654;1.621554;0.6435913;1.643676;-0.6062176;1.15;-0.6290803;1.185609;
637951364094745184;310.2758;31;0;3;0.2;1.4;1000;3;-0.6893655;1.621553;-0.6990135;1.634846;0.6893654;1.621554;0.6435913;1.643676;
637951364113729447;312.1751;31;0;3;0.2;1.4;1899;1.57977883096367;0.6062179;1.15;0.5371686;1.139739;-0.6893655;1.621553;-0.6990135;1.634846;
637951364125732141;313.3744;31;0;3;0.2;1.4;1199;2.50208507089241;-0.4499517;2.036231;-0.391483;2.087735;0.6062179;1.15;0.5371686;1.139739;
637951364138725064;314.674;31;0;3;0.2;1.4;1300;2.30769230769231;0.2394144;0.8422153;0.2807848;0.8040605;-0.4499517;2.036231;-0.391483;2.087735;
637951365159126436;416.715;31;1;4;0.1;1.4;1199;3.33611342785655;-0.2394138;0.8422151;-0.2337356;0.8204143;0;2.2;-0.009197512;2.225615;
637951365178120695;418.6149;31;1;4;0.1;1.4;1900;2.10526315789474;0.4499513;2.036231;0.4515383;2.041967;-0.2394138;0.8422151;-0.2337356;0.8204143;
637951365197104966;420.5135;31;1;4;0.1;1.4;1899;2.10637177461822;-0.6062176;1.15;-0.5754287;1.176782;0.4499513;2.036231;0.4515383;2.041967;
637951365208107435;421.6129;31;1;4;0.1;1.4;1099;3.63967242948135;0.6893654;1.621554;0.6666537;1.647148;-0.6062176;1.15;-0.5754287;1.176782;
637951365225091251;423.3119;31;1;4;0.1;1.4;1699;2.35432607416127;-0.6893655;1.621553;-0.6705552;1.646656;0.6893654;1.621554;0.6666537;1.647148;
637951365247186215;425.5219;31;1;4;0.1;1.4;2210;1.80995475113122;0.6062179;1.15;0.5952631;1.179531;-0.6893655;1.621553;-0.6705552;1.646656;
637951365259188911;426.7215;31;1;4;0.1;1.4;1200;3.33333333333333;-0.4499517;2.036231;-0.4139573;2.06305;0.6062179;1.15;0.5952631;1.179531;
637951365276172725;428.4207;31;1;4;0.1;1.4;1699;2.35432607416127;0.2394144;0.8422153;0.2373116;0.8834951;-0.4499517;2.036231;-0.4139573;2.06305;
637951365322163055;433.019;31;1;4.5;0.1;2.2;2899;1.55225939979303;-0.3762217;0.4663379;-0.3482502;0.4667217;0;2.6;-0.01886767;2.596429;
637951365354140241;436.217;31;1;4.5;0.1;2.2;3198;1.40712945590994;0.7070663;2.342649;0.6732876;2.334783;-0.3762217;0.4663379;-0.3482502;0.4667217;
637951365374128878;438.2158;31;1;4.5;0.1;2.2;1999;2.25112556278139;-0.9526277;0.9499994;-0.9473127;0.9157387;0.7070663;2.342649;0.6732876;2.334783;
637951365393230260;440.1261;31;1;4.5;0.1;2.2;1910;2.35602094240838;1.083289;1.691013;1.053436;1.724389;-0.9526277;0.9499994;-0.9473127;0.9157387;
637951365410224077;441.8254;31;1;4.5;0.1;2.2;1699;2.64861683343143;-1.083289;1.691012;-1.089021;1.702831;1.083289;1.691013;1.053436;1.724389;
637951365423212659;443.1248;31;1;4.5;0.1;2.2;1299;3.46420323325635;0.9526281;0.9500003;0.9625859;0.95716;-1.083289;1.691012;-1.089021;1.702831;
637951365438328610;444.6356;31;1;4.5;0.1;2.2;1511;2.97816015883521;-0.7070671;2.342648;-0.6906773;2.352313;0.9526281;0.9500003;0.9625859;0.95716;
637951365457312875;446.5342;31;1;4.5;0.1;2.2;1899;2.3696682464455;0.3762226;0.4663382;0.3731059;0.4983636;-0.7070671;2.342648;-0.6906773;2.352313;
637951365481298259;448.9333;31;1;1.5;1.1;2;800;1.875;-0.3420197;0.5603072;-0.2580643;1.03284;0;2.5;0.04560055;2.373804;
637951365490300282;449.8331;31;1;1.5;1.1;2;900;1.66666666666667;0.6427875;2.266045;0.5932559;2.16895;-0.3420197;0.5603072;-0.2580643;1.03284;
637951365497291854;450.5323;31;1;1.5;1.1;2;699;2.14592274678112;-0.8660251;0.9999995;-0.7490401;1.451915;0.6427875;2.266045;0.5932559;2.16895;
637951365516286117;452.4316;31;1;1.5;1.1;2;1899;0.789889415481833;0.9848077;1.673648;0.7019829;1.754427;-0.8660251;0.9999995;-0.7490401;1.451915;
637951365526278363;453.4313;31;1;1.5;1.1;2;1000;1.5;-0.9848078;1.673648;-0.6937839;1.725192;0.9848077;1.673648;0.7019829;1.754427;
637951365534280160;454.231;31;1;1.5;1.1;2;800;1.875;0.8660256;1;0.7083836;1.361831;-0.9848078;1.673648;-0.6937839;1.725192;
637951365543272178;455.1306;31;1;1.5;1.1;2;900;1.66666666666667;-0.6427882;2.266044;-0.4948527;2.046974;0.8660256;1;0.7083836;1.361831;
637951365552394228;456.0351;31;1;1.5;1.1;2;904;1.65929203539823;0.3420205;0.5603075;0.2579347;0.9608401;-0.6427882;2.266044;-0.4948527;2.046974;
637951365601355224;460.9389;31;1;2.5;0.3;1.4;1610;1.5527950310559;-0.2394138;0.8422151;-0.182166;0.8880589;0;2.2;0.04056094;2.201439;
637951365613357920;462.1385;31;1;2.5;0.3;1.4;1200;2.08333333333333;0.4499513;2.036231;0.3833197;2.059533;-0.2394138;0.8422151;-0.182166;0.8880589;
637951365625350616;463.3378;31;1;2.5;0.3;1.4;1199;2.08507089241034;-0.6062176;1.15;-0.5810231;1.116476;0.4499513;2.036231;0.3833197;2.059533;
637951365636343085;464.4373;31;1;2.5;0.3;1.4;1100;2.27272727272727;0.6893654;1.621554;0.6454151;1.631053;-0.6062176;1.15;-0.5810231;1.116476;
637951365646335327;465.4366;31;1;2.5;0.3;1.4;999;2.5025025025025;-0.6893655;1.621553;-0.6137943;1.629502;0.6893654;1.621554;0.6454151;1.631053;
637951365657327796;466.5363;31;1;2.5;0.3;1.4;1100;2.27272727272727;0.6062179;1.15;0.5624978;1.235731;-0.6893655;1.621553;-0.6137943;1.629502;
637951365667320038;467.5356;31;1;2.5;0.3;1.4;999;2.5025025025025;-0.4499517;2.036231;-0.387936;2.028845;0.6062179;1.15;0.5624978;1.235731;
637951365677322287;468.5351;31;1;2.5;0.3;1.4;999;2.5025025025025;0.2394144;0.8422153;0.2300039;0.8868711;-0.4499517;2.036231;-0.387936;2.028845;
637951365704313395;471.2341;31;1;2;0.6;1.8;1000;2;-0.3078177;0.6542765;-0.1701259;0.8489307;0;2.4;-0.0113092;2.486371;
637951365712306044;472.0337;31;1;2;0.6;1.8;800;2.5;0.5785087;2.18944;0.583473;2.216277;-0.3078177;0.6542765;-0.1701259;0.8489307;
637951365721305619;472.9334;31;1;2;0.6;1.8;900;2.22222222222222;-0.7794226;1.05;-0.7277713;1.19462;0.5785087;2.18944;0.583473;2.216277;
637951365729297416;473.7332;31;1;2;0.6;1.8;800;2.5;0.8863269;1.656283;0.7663363;1.643495;-0.7794226;1.05;-0.7277713;1.19462;
637951365738289433;474.6326;31;1;2;0.6;1.8;899;2.22469410456062;-0.8863271;1.656283;-0.741053;1.65393;0.8863269;1.656283;0.7663363;1.643495;
637951365748291681;475.6321;31;1;2;0.6;1.8;999;2.002002002002;0.779423;1.05;0.7434656;1.250132;-0.8863271;1.656283;-0.741053;1.65393;
637951365763393287;477.1425;31;1;2;0.6;1.8;1510;1.32450331125828;-0.5785094;2.18944;-0.3811392;2.157246;0.779423;1.05;0.7434656;1.250132;
637951365773390594;478.142;31;1;2;0.6;1.8;1000;2;0.3078185;0.6542768;0.2306193;0.7613643;-0.5785094;2.18944;-0.3811392;2.157246;
637951365792378136;480.0411;31;1;3;0.2;1.4;899;3.33704115684093;-0.2394138;0.8422151;-0.3059172;0.9013188;0;2.2;-0.01053641;2.156482;
637951365802380386;481.041;31;1;3;0.2;1.4;1000;3;0.4499513;2.036231;0.4099341;1.977428;-0.2394138;0.8422151;-0.3059172;0.9013188;
637951365815373302;482.3402;31;1;3;0.2;1.4;1299;2.3094688221709;-0.6062176;1.15;-0.5631016;1.152862;0.4499513;2.036231;0.4099341;1.977428;
637951365824365315;483.2397;31;1;3;0.2;1.4;900;3.33333333333333;0.6893654;1.621554;0.6650774;1.655101;-0.6062176;1.15;-0.5631016;1.152862;
637951365834357567;484.2391;31;1;3;0.2;1.4;999;3.003003003003;-0.6893655;1.621553;-0.6529089;1.663839;0.6893654;1.621554;0.6650774;1.655101;
637951365847350484;485.5386;31;1;3;0.2;1.4;1299;2.3094688221709;0.6062179;1.15;0.5266654;1.125033;-0.6893655;1.621553;-0.6529089;1.663839;
637951365869345422;487.7377;31;1;3;0.2;1.4;2199;1.36425648021828;-0.4499517;2.036231;-0.4000926;2.052735;0.6062179;1.15;0.5266654;1.125033;
637951365888329685;489.6364;31;1;3;0.2;1.4;1899;1.57977883096367;0.2394144;0.8422153;0.2547305;0.8920089;-0.4499517;2.036231;-0.4000926;2.052735;
637951365925428018;493.3461;31;1;3.5;0.2;2;2110;1.65876777251185;-0.3420197;0.5603072;-0.3160155;0.6153795;0;2.5;0.01261711;2.455101;
637951365940421389;494.8451;31;1;3.5;0.2;2;1499;2.33488992661775;0.6427875;2.266045;0.5687914;2.251457;-0.3420197;0.5603072;-0.3160155;0.6153795;
637951365954414531;496.2448;31;1;3.5;0.2;2;1400;2.5;-0.8660251;0.9999995;-0.8284907;1.014539;0.6427875;2.266045;0.5687914;2.251457;
637951365965406998;497.3441;31;1;3.5;0.2;2;1099;3.18471337579618;0.9848077;1.673648;0.8990896;1.722993;-0.8660251;0.9999995;-0.8284907;1.014539;
637951365977399694;498.5435;31;1;3.5;0.2;2;1199;2.91909924937448;-0.9848078;1.673648;-0.9260908;1.643877;0.9848077;1.673648;0.8990896;1.722993;
637951365990392609;499.8429;31;1;3.5;0.2;2;1299;2.69438029253272;0.8660256;1;0.8621549;0.9973109;-0.9848078;1.673648;-0.9260908;1.643877;
637951366006386203;501.4423;31;1;3.5;0.2;2;1599;2.18886804252658;-0.6427882;2.266044;-0.6177895;2.262608;0.8660256;1;0.8621549;0.9973109;
637951366021379571;502.9413;31;1;3.5;0.2;2;1499;2.33488992661775;0.3420205;0.5603075;0.3062681;0.6057218;-0.6427882;2.266044;-0.6177895;2.262608;
637951366591695924;559.9709;31;2;4;0.1;1.4;1199;3.33611342785655;-0.2394138;0.8422151;-0.2173364;0.8828803;0;2.2;0.01926199;2.189856;
637951366629784478;563.78;31;2;4;0.1;1.4;3809;1.05014439485429;0.4499513;2.036231;0.4333297;2.044674;-0.2394138;0.8422151;-0.2173364;0.8828803;
637951366643837629;565.1849;31;2;4;0.1;1.4;1405;2.84697508896797;-0.6062176;1.15;-0.5616546;1.152278;0.4499513;2.036231;0.4333297;2.044674;
637951366657770765;566.5785;31;2;4;0.1;1.4;1394;2.86944045911047;0.6893654;1.621554;0.6766936;1.616708;-0.6062176;1.15;-0.5616546;1.152278;
637951366674764579;568.278;31;2;4;0.1;1.4;1700;2.35294117647059;-0.6893655;1.621553;-0.6485686;1.626048;0.6893654;1.621554;0.6766936;1.616708;
637951366687757499;569.5773;31;2;4;0.1;1.4;1299;3.07929176289453;0.6062179;1.15;0.5677505;1.179446;-0.6893655;1.621553;-0.6485686;1.626048;
637951366700750418;570.8767;31;2;4;0.1;1.4;1299;3.07929176289453;-0.4499517;2.036231;-0.4397233;2.020203;0.6062179;1.15;0.5677505;1.179446;
637951366713743332;572.1763;31;2;4;0.1;1.4;1300;3.07692307692308;0.2394144;0.8422153;0.2297213;0.8910457;-0.4499517;2.036231;-0.4397233;2.020203;
637951366734743121;574.2758;31;2;2.5;0.3;1.4;1200;2.08333333333333;-0.2394138;0.8422151;-0.2105297;0.8992521;0;2.2;0.02511301;2.108421;
637951366743733090;575.1749;31;2;2.5;0.3;1.4;899;2.78086763070078;0.4499513;2.036231;0.4075043;2.011729;-0.2394138;0.8422151;-0.2105297;0.8992521;
637951366755735788;576.3757;31;2;2.5;0.3;1.4;1201;2.08159866777685;-0.6062176;1.15;-0.5362833;1.190039;0.4499513;2.036231;0.4075043;2.011729;
637951366764837840;577.2849;31;2;2.5;0.3;1.4;909;2.75027502750275;0.6893654;1.621554;0.644043;1.654255;-0.6062176;1.15;-0.5362833;1.190039;
637951366776830530;578.4843;31;2;2.5;0.3;1.4;1199;2.08507089241034;-0.6893655;1.621553;-0.6354178;1.661278;0.6893654;1.621554;0.644043;1.654255;
637951366786828997;579.4839;31;2;2.5;0.3;1.4;1000;2.5;0.6062179;1.15;0.6255515;1.203279;-0.6893655;1.621553;-0.6354178;1.661278;
637951366798820442;580.6834;31;2;2.5;0.3;1.4;1200;2.08333333333333;-0.4499517;2.036231;-0.4898341;2.11072;0.6062179;1.15;0.6255515;1.203279;
637951366812863596;582.0879;31;2;2.5;0.3;1.4;1404;1.78062678062678;0.2394144;0.8422153;0.2486024;0.9756444;-0.4499517;2.036231;-0.4898341;2.11072;
637951366832968111;584.0984;31;2;1.5;1.1;2;900;1.66666666666667;-0.3420197;0.5603072;-0.2466665;0.9620723;0;2.5;0.01114026;2.280044;
637951366840889889;584.8925;31;2;1.5;1.1;2;794;1.88916876574307;0.6427875;2.266045;0.4272093;2.060036;-0.3420197;0.5603072;-0.2466665;0.9620723;
637951366849881911;585.7919;31;2;1.5;1.1;2;899;1.66852057842047;-0.8660251;0.9999995;-0.8463273;1.227968;0.6427875;2.266045;0.4272093;2.060036;
637951366857893708;586.5924;31;2;1.5;1.1;2;800;1.875;0.9848077;1.673648;0.5062331;1.684057;-0.8660251;0.9999995;-0.8463273;1.227968;
637951366865885502;587.3914;31;2;1.5;1.1;2;799;1.87734668335419;-0.9848078;1.673648;-0.6375485;1.707454;0.9848077;1.673648;0.5062331;1.684057;
637951366873927311;588.1958;31;2;1.5;1.1;2;804;1.86567164179104;0.8660256;1;0.4488393;1.255392;-0.9848078;1.673648;-0.6375485;1.707454;
637951366883879547;589.1909;31;2;1.5;1.1;2;995;1.50753768844221;-0.6427882;2.266044;-0.4507435;2.010657;0.8660256;1;0.4488393;1.255392;
637951366891871339;589.9902;31;2;1.5;1.1;2;799;1.87734668335419;0.3420205;0.5603075;0.2553862;1.075697;-0.6427882;2.266044;-0.4507435;2.010657;
637951366925969001;593.3995;31;2;3.5;0.2;2;1299;2.69438029253272;-0.3420197;0.5603072;-0.2728971;0.5918759;0;2.5;0.0008737696;2.485136;
637951366936011251;594.4036;31;2;3.5;0.2;2;1004;3.48605577689243;0.6427875;2.266045;0.5827641;2.269075;-0.3420197;0.5603072;-0.2728971;0.5918759;
637951366949954385;595.7983;31;2;3.5;0.2;2;1395;2.5089605734767;-0.8660251;0.9999995;-0.8017968;1.048553;0.6427875;2.266045;0.5827641;2.269075;
637951366960006643;596.8034;31;2;3.5;0.2;2;1005;3.48258706467662;0.9848077;1.673648;0.9431701;1.683008;-0.8660251;0.9999995;-0.8017968;1.048553;
637951366969948875;597.7975;31;2;3.5;0.2;2;994;3.52112676056338;-0.9848078;1.673648;-0.9572763;1.64663;0.9848077;1.673648;0.9431701;1.683008;
637951366980941345;598.8969;31;2;3.5;0.2;2;1099;3.18471337579618;0.8660256;1;0.8285444;0.9903675;-0.9848078;1.673648;-0.9572763;1.64663;
637951366991983821;600.0018;31;2;3.5;0.2;2;1105;3.16742081447964;-0.6427882;2.266044;-0.5695783;2.207559;0.8660256;1;0.8285444;0.9903675;
637951367006927181;601.4957;31;2;3.5;0.2;2;1494;2.34270414993307;0.3420205;0.5603075;0.3521267;0.6201448;-0.6427882;2.266044;-0.5695783;2.207559;
637951367028912116;603.6948;31;2;3;0.2;1.4;1100;2.72727272727273;-0.2394138;0.8422151;-0.2768399;0.8102568;0;2.2;0.01802221;2.166973;
637951367045915937;605.3944;31;2;3;0.2;1.4;1700;1.76470588235294;0.4499513;2.036231;0.387593;2.05129;-0.2394138;0.8422151;-0.2768399;0.8102568;
637951367058948860;606.6987;31;2;3;0.2;1.4;1304;2.30061349693252;-0.6062176;1.15;-0.5419602;1.176875;0.4499513;2.036231;0.387593;2.05129;
637951367068010899;607.6042;31;2;3;0.2;1.4;906;3.3112582781457;0.6893654;1.621554;0.727358;1.665096;-0.6062176;1.15;-0.5419602;1.176875;
637951367078003144;608.6035;31;2;3;0.2;1.4;999;3.003003003003;-0.6893655;1.621553;-0.7200571;1.577237;0.6893654;1.621554;0.727358;1.665096;
637951367086995162;609.503;31;2;3;0.2;1.4;899;3.33704115684093;0.6062179;1.15;0.6566526;1.212662;-0.6893655;1.621553;-0.7200571;1.577237;
637951367098988566;610.7023;31;2;3;0.2;1.4;1199;2.50208507089241;-0.4499517;2.036231;-0.4241997;2.022255;0.6062179;1.15;0.6566526;1.212662;
637951367109988523;611.8024;31;2;3;0.2;1.4;1100;2.72727272727273;0.2394144;0.8422153;0.2162845;0.8930967;-0.4499517;2.036231;-0.4241997;2.022255;
637951367124979180;613.3011;31;2;2;0.6;1.8;799;2.50312891113892;-0.3078177;0.6542765;-0.2804024;0.9013498;0;2.4;0.07486928;2.149393;
637951367130980530;613.9013;31;2;2;0.6;1.8;600;3.33333333333333;0.5785087;2.18944;0.4500815;1.965982;-0.3078177;0.6542765;-0.2804024;0.9013498;
637951367140032560;614.8063;31;2;2;0.6;1.8;905;2.20994475138122;-0.7794226;1.05;-0.6223884;1.156438;0.5785087;2.18944;0.4500815;1.965982;
637951367145203725;615.3306;31;2;2;0.6;1.8;524;3.81679389312977;0.8863269;1.656283;0.6366184;1.504969;-0.7794226;1.05;-0.6223884;1.156438;
637951367153965692;616.1998;31;2;2;0.6;1.8;869;2.30149597238205;-0.8863271;1.656283;-0.7429703;1.594466;0.8863269;1.656283;0.6366184;1.504969;
637951367162961679;617.0997;31;2;2;0.6;1.8;900;2.22222222222222;0.779423;1.05;0.7182852;1.237695;-0.8863271;1.656283;-0.7429703;1.594466;
637951367173963634;618.1993;31;2;2;0.6;1.8;1100;1.81818181818182;-0.5785094;2.18944;-0.3494777;2.111398;0.779423;1.05;0.7182852;1.237695;
637951367185952273;619.3987;31;2;2;0.6;1.8;1199;1.66805671392827;0.3078185;0.6542768;0.3207447;0.8928959;-0.5785094;2.18944;-0.3494777;2.111398;
637951367219054554;622.7083;31;2;4.5;0.1;2.2;2199;2.04638472032742;-0.3762217;0.4663379;-0.3647821;0.4826058;0;2.6;0.02728004;2.593216;
637951367229043775;623.7079;31;2;4.5;0.1;2.2;1000;4.5;0.7070663;2.342649;0.6899427;2.328258;-0.3762217;0.4663379;-0.3647821;0.4826058;
637951367251033280;625.9067;31;2;4.5;0.1;2.2;2199;2.04638472032742;-0.9526277;0.9499994;-0.9518918;0.9655209;0.7070663;2.342649;0.6899427;2.328258;
637951367263031328;627.1061;31;2;4.5;0.1;2.2;1199;3.75312760633862;1.083289;1.691013;1.047208;1.656671;-0.9526277;0.9499994;-0.9518918;0.9655209;
637951367279018334;628.7053;31;2;4.5;0.1;2.2;1599;2.81425891181989;-1.083289;1.691012;-1.055696;1.691596;1.083289;1.691013;1.047208;1.656671;
637951367290360879;629.8471;31;2;4.5;0.1;2.2;1142;3.94045534150613;0.9526281;0.9500003;0.9030042;0.9494245;-1.083289;1.691012;-1.055696;1.691596;
637951367303003719;631.104;31;2;4.5;0.1;2.2;1257;3.5799522673031;-0.7070671;2.342648;-0.6880763;2.331722;0.9526281;0.9500003;0.9030042;0.9494245;
637951367335110929;634.3139;31;2;4.5;0.1;2.2;3210;1.4018691588785;0.3762226;0.4663382;0.3804933;0.4786334;-0.7070671;2.342648;-0.6880763;2.331722;
637951367822223465;683.025;31;3;1.5;1.1;2;900;1.66666666666667;-0.3420197;0.5603072;-0.1799317;0.8365442;0;2.5;0.09373657;2.517;
637951367828214814;683.6244;31;3;1.5;1.1;2;599;2.50417362270451;0.6427875;2.266045;0.4484481;2.092134;-0.3420197;0.5603072;-0.1799317;0.8365442;
637951367836206605;684.4238;31;3;1.5;1.1;2;799;1.87734668335419;-0.8660251;0.9999995;-0.8274581;1.333383;0.6427875;2.266045;0.4484481;2.092134;
637951367843198176;685.1235;31;3;1.5;1.1;2;700;2.14285714285714;0.9848077;1.673648;0.6733871;1.800641;-0.8660251;0.9999995;-0.8274581;1.333383;
637951367850199749;685.8232;31;3;1.5;1.1;2;700;2.14285714285714;-0.9848078;1.673648;-0.7864885;1.709037;0.9848077;1.673648;0.6733871;1.800641;
637951367860191993;686.8229;31;3;1.5;1.1;2;1000;1.5;0.8660256;1;0.657707;1.351936;-0.9848078;1.673648;-0.7864885;1.709037;
637951367870194239;687.8223;31;3;1.5;1.1;2;999;1.5015015015015;-0.6427882;2.266044;-0.3938897;2.183357;0.8660256;1;0.657707;1.351936;
637951367879186259;688.7217;31;3;1.5;1.1;2;899;1.66852057842047;0.3420205;0.5603075;0.1920491;0.8664942;-0.6427882;2.266044;-0.3938897;2.183357;
637951367908572861;691.6676;31;3;3.5;0.2;2;2046;1.71065493646139;-0.3420197;0.5603072;-0.3698674;0.6562178;0;2.5;0.04912241;2.44053;
637951367917279579;692.5311;31;3;3.5;0.2;2;864;4.05092592592593;0.6427875;2.266045;0.6187687;2.2252;-0.3420197;0.5603072;-0.3698674;0.6562178;
637951367938271343;694.6303;31;3;3.5;0.2;2;2099;1.66746069556932;-0.8660251;0.9999995;-0.777092;1.041495;0.6427875;2.266045;0.6187687;2.2252;
637951367949263816;695.7294;31;3;3.5;0.2;2;1099;3.18471337579618;0.9848077;1.673648;0.889234;1.690125;-0.8660251;0.9999995;-0.777092;1.041495;
637951367972484163;698.059;31;3;3.5;0.2;2;2330;1.50214592274678;-0.9848078;1.673648;-1.06084;1.633736;0.9848077;1.673648;0.889234;1.690125;
637951367998244229;700.6275;31;3;3.5;0.2;2;2568;1.36292834890966;0.8660256;1;0.8408828;0.99858;-0.9848078;1.673648;-1.06084;1.633736;
637951368009234101;701.7269;31;3;3.5;0.2;2;1099;3.18471337579618;-0.6427882;2.266044;-0.6483816;2.28811;0.8660256;1;0.8408828;0.99858;
637951368017234252;702.5266;31;3;3.5;0.2;2;800;4.375;0.3420205;0.5603075;0.287487;0.6439961;-0.6427882;2.266044;-0.6483816;2.28811;
637951368042228257;705.0259;31;3;2.5;0.3;1.4;1500;1.66666666666667;-0.2394138;0.8422151;-0.1520951;0.9289063;0;2.2;0.03603811;2.142378;
637951368056321423;706.4358;31;3;2.5;0.3;1.4;1410;1.77304964539007;0.4499513;2.036231;0.466245;2.045051;-0.2394138;0.8422151;-0.1520951;0.9289063;
637951368067313893;707.535;31;3;2.5;0.3;1.4;1099;2.27479526842584;-0.6062176;1.15;-0.503883;1.205671;0.4499513;2.036231;0.466245;2.045051;
637951368100301302;710.8339;31;3;2.5;0.3;1.4;3299;0.757805395574417;0.6893654;1.621554;0.6558801;1.684773;-0.6062176;1.15;-0.503883;1.205671;
637951368112304000;712.0334;31;3;2.5;0.3;1.4;1200;2.08333333333333;-0.6893655;1.621553;-0.6280286;1.67531;0.6893654;1.621554;0.6558801;1.684773;
637951368122296244;713.0332;31;3;2.5;0.3;1.4;1000;2.5;0.6062179;1.15;0.5306253;1.155053;-0.6893655;1.621553;-0.6280286;1.67531;
637951368136289385;714.4323;31;3;2.5;0.3;1.4;1399;1.78699070764832;-0.4499517;2.036231;-0.360263;2.135318;0.6062179;1.15;0.5306253;1.155053;
637951368148282082;715.6317;31;3;2.5;0.3;1.4;1199;2.08507089241034;0.2394144;0.8422153;0.1902719;0.8949649;-0.4499517;2.036231;-0.360263;2.135318;
637951368176278369;718.4305;31;3;4.5;0.1;2.2;1699;2.64861683343143;-0.3762217;0.4663379;-0.3505362;0.4846463;0;2.6;0.01201986;2.578104;
637951368192291963;720.0301;31;3;4.5;0.1;2.2;1600;2.8125;0.7070663;2.342649;0.6760723;2.310756;-0.3762217;0.4663379;-0.3505362;0.4846463;
637951368222358715;723.0396;31;3;4.5;0.1;2.2;2341;1.92225544639043;-0.9526277;0.9499994;-0.9275863;0.9582322;0.7070663;2.342649;0.6760723;2.310756;
637951368249344778;725.738;31;3;4.5;0.1;2.2;2698;1.66790214974055;1.083289;1.691013;1.07548;1.680269;-0.9526277;0.9499994;-0.9275863;0.9582322;
637951368265348375;727.3378;31;3;4.5;0.1;2.2;1600;2.8125;-1.083289;1.691012;-1.053752;1.686993;1.083289;1.691013;1.07548;1.680269;
637951368291324212;729.9359;31;3;4.5;0.1;2.2;2598;1.73210161662818;0.9526281;0.9500003;0.9250023;0.9841689;-1.083289;1.691012;-1.053752;1.686993;
637951368314315259;732.2348;31;3;4.5;0.1;2.2;2299;1.9573727707699;-0.7070671;2.342648;-0.7181122;2.386713;0.9526281;0.9500003;0.9250023;0.9841689;
637951368329305021;733.734;31;3;4.5;0.1;2.2;1499;3.00200133422282;0.3762226;0.4663382;0.3864041;0.5023836;-0.7070671;2.342648;-0.7181122;2.386713;
637951368363408127;737.1441;31;3;2;0.6;1.8;2210;0.904977375565611;-0.3078177;0.6542765;-0.2955891;0.9464474;0;2.4;-0.008443201;2.400009;
637951368378401496;738.643;31;3;2;0.6;1.8;1499;1.33422281521014;0.5785087;2.18944;0.3472704;2.157385;-0.3078177;0.6542765;-0.2955891;0.9464474;
637951368386393288;739.4427;31;3;2;0.6;1.8;800;2.5;-0.7794226;1.05;-0.6726761;1.318756;0.5785087;2.18944;0.3472704;2.157385;
637951368396395534;740.4424;31;3;2;0.6;1.8;1000;2;0.8863269;1.656283;0.8346443;1.631358;-0.7794226;1.05;-0.6726761;1.318756;
637951368405387553;741.3418;31;3;2;0.6;1.8;899;2.22469410456062;-0.8863271;1.656283;-0.8232511;1.647167;0.8863269;1.656283;0.8346443;1.631358;
637951368427372490;743.5408;31;3;2;0.6;1.8;2199;0.909504320145521;0.779423;1.05;0.7404739;1.268036;-0.8863271;1.656283;-0.8232511;1.647167;
637951368438374962;744.6409;31;3;2;0.6;1.8;1100;1.81818181818182;-0.5785094;2.18944;-0.4991516;2.216028;0.779423;1.05;0.7404739;1.268036;
637951368446366758;745.4402;31;3;2;0.6;1.8;799;2.50312891113892;0.3078185;0.6542768;0.2205732;0.9369113;-0.5785094;2.18944;-0.4991516;2.216028;
637951368480354392;748.8384;31;3;4;0.1;1.4;2399;1.66736140058358;-0.2394138;0.8422151;-0.2266421;0.8828146;0;2.2;0.01489826;2.197695;
637951368498348434;750.6375;31;3;4;0.1;1.4;1799;2.22345747637576;0.4499513;2.036231;0.4383128;2.013501;-0.2394138;0.8422151;-0.2266421;0.8828146;
637951368509340902;751.7371;31;3;4;0.1;1.4;1100;3.63636363636364;-0.6062176;1.15;-0.5860085;1.120358;0.4499513;2.036231;0.4383128;2.013501;
637951368520443397;752.8477;31;3;4;0.1;1.4;1111;3.6003600360036;0.6893654;1.621554;0.6745628;1.631297;-0.6062176;1.15;-0.5860085;1.120358;
637951368532436090;754.0473;31;3;4;0.1;1.4;1200;3.33333333333333;-0.6893655;1.621553;-0.6568623;1.658766;0.6893654;1.621554;0.6745628;1.631297;
637951368560432377;756.8458;31;3;4;0.1;1.4;2799;1.4290818149339;0.6062179;1.15;0.6173275;1.152746;-0.6893655;1.621553;-0.6568623;1.658766;
637951368591639384;759.9739;31;3;4;0.1;1.4;3128;1.27877237851662;-0.4499517;2.036231;-0.4317856;2.078754;0.6062179;1.15;0.6173275;1.152746;
637951368622395231;763.0429;31;3;4;0.1;1.4;3069;1.30335614206582;0.2394144;0.8422153;0.2381849;0.8688786;-0.4499517;2.036231;-0.4317856;2.078754;
637951368653387834;766.1417;31;3;3;0.2;1.4;1300;2.30769230769231;-0.2394138;0.8422151;-0.1927733;0.8746912;0;2.2;0.01018019;2.186664;
637951368662489900;767.0522;31;3;3;0.2;1.4;911;3.29308452250274;0.4499513;2.036231;0.4074748;1.988849;-0.2394138;0.8422151;-0.1927733;0.8746912;
637951368676486513;768.4515;31;3;3;0.2;1.4;1399;2.14438884917798;-0.6062176;1.15;-0.6131233;1.189294;0.4499513;2.036231;0.4074748;1.988849;
637951368685480724;769.3511;31;3;3;0.2;1.4;900;3.33333333333333;0.6893654;1.621554;0.660966;1.66747;-0.6062176;1.15;-0.6131233;1.189294;
637951368697588551;770.5617;31;3;3;0.2;1.4;1211;2.47729149463254;-0.6893655;1.621553;-0.61198;1.679862;0.6893654;1.621554;0.660966;1.66747;
637951368709581240;771.7609;31;3;3;0.2;1.4;1199;2.50208507089241;0.6062179;1.15;0.6553032;1.182215;-0.6893655;1.621553;-0.61198;1.679862;
637951368731566179;773.9601;31;3;3;0.2;1.4;2199;1.36425648021828;-0.4499517;2.036231;-0.4081066;2.051991;0.6062179;1.15;0.6553032;1.182215;
637951368743558867;775.1592;31;3;3;0.2;1.4;1199;2.50208507089241;0.2394144;0.8422153;0.2128642;0.8503696;-0.4499517;2.036231;-0.4081066;2.051991;
637951369919126003;892.7161;31;4;3;0.2;1.4;1810;1.65745856353591;-0.2394138;0.8422151;-0.2149718;0.9084066;0;2.2;0.003067082;2.188548;
637951369942111160;895.0148;31;4;3;0.2;1.4;2299;1.30491518051327;0.4499513;2.036231;0.4126096;2.015342;-0.2394138;0.8422151;-0.2149718;0.9084066;
637951369956114311;896.4141;31;4;3;0.2;1.4;1399;2.14438884917798;-0.6062176;1.15;-0.5352693;1.140422;0.4499513;2.036231;0.4126096;2.015342;
637951369973108126;898.1136;31;4;3;0.2;1.4;1699;1.76574455562095;0.6893654;1.621554;0.6689056;1.671896;-0.6062176;1.15;-0.5352693;1.140422;
637951369989091717;899.7129;31;4;3;0.2;1.4;1599;1.87617260787993;-0.6893655;1.621553;-0.6347645;1.595932;0.6893654;1.621554;0.6689056;1.671896;
637951370010086431;901.8117;31;4;3;0.2;1.4;2099;1.4292520247737;0.6062179;1.15;0.562425;1.145588;-0.6893655;1.621553;-0.6347645;1.595932;
637951370023079351;903.1111;31;4;3;0.2;1.4;1299;2.3094688221709;-0.4499517;2.036231;-0.4181051;2.041203;0.6062179;1.15;0.562425;1.145588;
637951370035079397;904.3107;31;4;3;0.2;1.4;1200;2.5;0.2394144;0.8422153;0.2408714;0.8116405;-0.4499517;2.036231;-0.4181051;2.041203;
637951370052063213;906.0095;31;4;1.5;1.1;2;699;2.14592274678112;-0.3420197;0.5603072;-0.1502962;0.9400934;0;2.5;0.06090474;2.190792;
637951370059058174;906.7094;31;4;1.5;1.1;2;700;2.14285714285714;0.6427875;2.266045;0.5074429;1.842095;-0.3420197;0.5603072;-0.1502962;0.9400934;
637951370068168984;907.6198;31;4;1.5;1.1;2;910;1.64835164835165;-0.8660251;0.9999995;-0.5572971;1.14245;0.6427875;2.266045;0.5074429;1.842095;
637951370076280986;908.431;31;4;1.5;1.1;2;811;1.84956843403206;0.9848077;1.673648;0.5360063;1.667099;-0.8660251;0.9999995;-0.5572971;1.14245;
637951370084156376;909.2192;31;4;1.5;1.1;2;788;1.90355329949239;-0.9848078;1.673648;-0.7119991;1.694583;0.9848077;1.673648;0.5360063;1.667099;
637951370094158617;910.2188;31;4;1.5;1.1;2;1000;1.5;0.8660256;1;0.5357834;1.335945;-0.9848078;1.673648;-0.7119991;1.694583;
637951370102150416;911.0184;31;4;1.5;1.1;2;799;1.87734668335419;-0.6427882;2.266044;-0.4725631;2.128026;0.8660256;1;0.5357834;1.335945;
637951370110152214;911.8181;31;4;1.5;1.1;2;800;1.875;0.3420205;0.5603075;0.2241321;1.057202;-0.6427882;2.266044;-0.4725631;2.128026;
637951370134137599;914.217;31;4;4;0.1;1.4;1299;3.07929176289453;-0.2394138;0.8422151;-0.2271281;0.8730441;0;2.2;0.02415323;2.181142;
637951370144129842;915.2165;31;4;4;0.1;1.4;1000;4;0.4499513;2.036231;0.4264295;2.048711;-0.2394138;0.8422151;-0.2271281;0.8730441;
637951370164124336;917.2158;31;4;4;0.1;1.4;1999;2.00100050025012;-0.6062176;1.15;-0.606328;1.122383;0.4499513;2.036231;0.4264295;2.048711;
637951370174116579;918.2154;31;4;4;0.1;1.4;1000;4;0.6893654;1.621554;0.6659521;1.636941;-0.6062176;1.15;-0.606328;1.122383;
637951370205103533;921.3138;31;4;4;0.1;1.4;3098;1.2911555842479;-0.6893655;1.621553;-0.6698197;1.613407;0.6893654;1.621554;0.6659521;1.636941;
637951370218106463;922.6132;31;4;4;0.1;1.4;1299;3.07929176289453;0.6062179;1.15;0.5876902;1.151402;-0.6893655;1.621553;-0.6698197;1.613407;
637951370230209177;923.8239;31;4;4;0.1;1.4;1211;3.30305532617671;-0.4499517;2.036231;-0.4430023;2.035478;0.6062179;1.15;0.5876902;1.151402;
637951370242201873;925.0231;31;4;4;0.1;1.4;1199;3.33611342785655;0.2394144;0.8422153;0.2219518;0.8507721;-0.4499517;2.036231;-0.4430023;2.035478;
637951370267187483;927.5217;31;4;2.5;0.3;1.4;1100;2.27272727272727;-0.2394138;0.8422151;-0.1520166;0.9132031;0;2.2;-0.0145564;2.114748;
637951370277179728;928.5215;31;4;2.5;0.3;1.4;1000;2.5;0.4499513;2.036231;0.3813404;2.019691;-0.2394138;0.8422151;-0.1520166;0.9132031;
637951370288182196;929.621;31;4;2.5;0.3;1.4;1099;2.27479526842584;-0.6062176;1.15;-0.5369327;1.187504;0.4499513;2.036231;0.3813404;2.019691;
637951370297174219;930.5206;31;4;2.5;0.3;1.4;900;2.77777777777778;0.6893654;1.621554;0.7495465;1.724967;-0.6062176;1.15;-0.5369327;1.187504;
637951370306166238;931.4199;31;4;2.5;0.3;1.4;899;2.78086763070078;-0.6893655;1.621553;-0.6624337;1.578161;0.6893654;1.621554;0.7495465;1.724967;
637951370317158708;932.5194;31;4;2.5;0.3;1.4;1099;2.27479526842584;0.6062179;1.15;0.620918;1.028997;-0.6893655;1.621553;-0.6624337;1.578161;
637951370336152975;934.4185;31;4;2.5;0.3;1.4;1899;1.31648235913639;-0.4499517;2.036231;-0.4037096;1.999406;0.6062179;1.15;0.620918;1.028997;
637951370348155672;935.6191;31;4;2.5;0.3;1.4;1201;2.08159866777685;0.2394144;0.8422153;0.2393555;0.965711;-0.4499517;2.036231;-0.4037096;1.999406;
637951370373133457;938.1169;31;4;4.5;0.1;2.2;1200;3.75;-0.3762217;0.4663379;-0.3515595;0.5059185;0;2.6;0.02352204;2.56722;
637951370384473932;939.2575;31;4;4.5;0.1;2.2;1141;3.94390885188431;0.7070663;2.342649;0.6576951;2.335398;-0.3762217;0.4663379;-0.3515595;0.5059185;
637951370404228371;941.2266;31;4;4.5;0.1;2.2;1969;2.28542407313357;-0.9526277;0.9499994;-0.9738508;0.9883754;0.7070663;2.342649;0.6576951;2.335398;
637951370420229369;942.8258;31;4;4.5;0.1;2.2;1599;2.81425891181989;1.083289;1.691013;1.036684;1.674923;-0.9526277;0.9499994;-0.9738508;0.9883754;
637951370445214833;945.325;31;4;4.5;0.1;2.2;2499;1.80072028811525;-1.083289;1.691012;-1.06563;1.69664;1.083289;1.691013;1.036684;1.674923;
637951370461228470;946.9254;31;4;4.5;0.1;2.2;1600;2.8125;0.9526281;0.9500003;0.9623493;0.9861757;-1.083289;1.691012;-1.06563;1.69664;
637951370475201611;948.3231;31;4;4.5;0.1;2.2;1398;3.21888412017167;-0.7070671;2.342648;-0.6901909;2.312655;0.9526281;0.9500003;0.9623493;0.9861757;
637951370490194974;949.8226;31;4;4.5;0.1;2.2;1500;3;0.3762226;0.4663382;0.3742378;0.5162538;-0.7070671;2.342648;-0.6901909;2.312655;
637951370517181029;952.5214;31;4;2;0.6;1.8;1100;1.81818181818182;-0.3078177;0.6542765;-0.2069171;0.7982476;0;2.4;-0.02528596;2.337643;
637951370536175302;954.4207;31;4;2;0.6;1.8;1899;1.05318588730911;0.5785087;2.18944;0.4121065;2.111418;-0.3078177;0.6542765;-0.2069171;0.7982476;
637951370548167995;955.6199;31;4;2;0.6;1.8;1199;1.66805671392827;-0.7794226;1.05;-0.6192845;1.23892;0.5785087;2.18944;0.4121065;2.111418;
637951370566272059;957.4302;31;4;2;0.6;1.8;1810;1.10497237569061;0.8863269;1.656283;0.6975519;1.799547;-0.7794226;1.05;-0.6192845;1.23892;
637951370577264531;958.5297;31;4;2;0.6;1.8;1099;1.81983621474067;-0.8863271;1.656283;-0.6837512;1.708622;0.8863269;1.656283;0.6975519;1.799547;
637951370586256549;959.429;31;4;2;0.6;1.8;899;2.22469410456062;0.779423;1.05;0.6233923;1.152286;-0.8863271;1.656283;-0.6837512;1.708622;
637951370596258796;960.4291;31;4;2;0.6;1.8;1000;2;-0.5785094;2.18944;-0.427057;2.135626;0.779423;1.05;0.6233923;1.152286;
637951370607251264;961.5283;31;4;2;0.6;1.8;1099;1.81983621474067;0.3078185;0.6542768;0.2853438;0.8855186;-0.5785094;2.18944;-0.427057;2.135626;
637951370630236423;963.8275;31;4;3.5;0.2;2;1299;2.69438029253272;-0.3420197;0.5603072;-0.3132746;0.623338;0;2.5;0.03151522;2.471643;
637951370641228894;964.9266;31;4;3.5;0.2;2;1099;3.18471337579618;0.6427875;2.266045;0.6335297;2.287036;-0.3420197;0.5603072;-0.3132746;0.623338;
637951370670225409;967.8256;31;4;3.5;0.2;2;2899;1.20731286650569;-0.8660251;0.9999995;-0.8443217;1.043601;0.6427875;2.266045;0.6335297;2.287036;
637951370681217877;968.9247;31;4;3.5;0.2;2;1099;3.18471337579618;0.9848077;1.673648;0.932809;1.715518;-0.8660251;0.9999995;-0.8443217;1.043601;
637951370695211020;970.3243;31;4;3.5;0.2;2;1400;2.5;-0.9848078;1.673648;-0.8891271;1.702622;0.9848077;1.673648;0.932809;1.715518;
637951370710204387;971.824;31;4;3.5;0.2;2;1500;2.33333333333333;0.8660256;1;0.8210211;1.047992;-0.9848078;1.673648;-0.8891271;1.702622;
637951370722307107;973.0342;31;4;3.5;0.2;2;1210;2.89256198347107;-0.6427882;2.266044;-0.5974756;2.284466;0.8660256;1;0.8210211;1.047992;
637951370734299799;974.2335;31;4;3.5;0.2;2;1199;2.91909924937448;0.3420205;0.5603075;0.3166251;0.6117705;-0.6427882;2.266044;-0.5974756;2.284466;
637951371190427248;1019.846;31;5;2.5;0.3;1.4;1799;1.38966092273485;-0.2394138;0.8422151;-0.1689672;0.8948619;0;2.2;0.03951401;2.122066;
637951371200419487;1020.845;31;5;2.5;0.3;1.4;999;2.5025025025025;0.4499513;2.036231;0.4697565;2.09343;-0.2394138;0.8422151;-0.1689672;0.8948619;
637951371210421739;1021.845;31;5;2.5;0.3;1.4;1000;2.5;-0.6062176;1.15;-0.5706193;1.198839;0.4499513;2.036231;0.4697565;2.09343;
637951371220413984;1022.844;31;5;2.5;0.3;1.4;999;2.5025025025025;0.6893654;1.621554;0.7480744;1.674432;-0.6062176;1.15;-0.5706193;1.198839;
637951371230406228;1023.844;31;5;2.5;0.3;1.4;999;2.5025025025025;-0.6893655;1.621553;-0.6444874;1.672694;0.6893654;1.621554;0.7480744;1.674432;
637951371240408473;1024.844;31;5;2.5;0.3;1.4;1000;2.5;0.6062179;1.15;0.5911983;1.258743;-0.6893655;1.621553;-0.6444874;1.672694;
637951371249400495;1025.743;31;5;2.5;0.3;1.4;900;2.77777777777778;-0.4499517;2.036231;-0.4388459;2.016057;0.6062179;1.15;0.5911983;1.258743;
637951371269384976;1027.742;31;5;2.5;0.3;1.4;1999;1.25062531265633;0.2394144;0.8422153;0.2415413;0.956654;-0.4499517;2.036231;-0.4388459;2.016057;
637951371287503465;1029.553;31;5;1.5;1.1;2;911;1.64654226125137;-0.3420197;0.5603072;-0.2387642;1.018112;0;2.5;-0.0115667;2.301479;
637951371295425236;1030.346;31;5;1.5;1.1;2;793;1.89155107187894;0.6427875;2.266045;0.4059119;1.970356;-0.3420197;0.5603072;-0.2387642;1.018112;
637951371304477272;1031.251;31;5;1.5;1.1;2;905;1.65745856353591;-0.8660251;0.9999995;-0.5101304;1.317792;0.6427875;2.266045;0.4059119;1.970356;
637951371312479069;1032.051;31;5;1.5;1.1;2;800;1.875;0.9848077;1.673648;0.6277249;1.63837;-0.8660251;0.9999995;-0.5101304;1.317792;
637951371318481409;1032.651;31;5;1.5;1.1;2;600;2.5;-0.9848078;1.673648;-0.5991244;1.630251;0.9848077;1.673648;0.6277249;1.63837;
637951371328470537;1033.651;31;5;1.5;1.1;2;1000;1.5;0.8660256;1;0.5736749;1.346488;-0.9848078;1.673648;-0.5991244;1.630251;
637951371336473570;1034.45;31;5;1.5;1.1;2;800;1.875;-0.6427882;2.266044;-0.5284785;2.279115;0.8660256;1;0.5736749;1.346488;
637951371348470810;1035.65;31;5;1.5;1.1;2;1200;1.25;0.3420205;0.5603075;0.2631224;1.014366;-0.6427882;2.266044;-0.5284785;2.279115;
637951371384448887;1039.248;31;5;3;0.2;1.4;2694;1.11358574610245;-0.2394138;0.8422151;-0.1895664;0.9006792;0;2.2;0.03224597;2.172418;
637951371394441131;1040.248;31;5;3;0.2;1.4;1000;3;0.4499513;2.036231;0.4884366;2.013652;-0.2394138;0.8422151;-0.1895664;0.9006792;
637951371406433826;1041.447;31;5;3;0.2;1.4;1199;2.50208507089241;-0.6062176;1.15;-0.5669392;1.172727;0.4499513;2.036231;0.4884366;2.013652;
637951371416436073;1042.447;31;5;3;0.2;1.4;1000;3;0.6893654;1.621554;0.6260153;1.571587;-0.6062176;1.15;-0.5669392;1.172727;
637951371442531932;1045.056;31;5;3;0.2;1.4;2610;1.14942528735632;-0.6893655;1.621553;-0.6552109;1.630505;0.6893654;1.621554;0.6260153;1.571587;
637951371453524403;1046.156;31;5;3;0.2;1.4;1099;2.72975432211101;0.6062179;1.15;0.5916602;1.218267;-0.6893655;1.621553;-0.6552109;1.630505;
637951371463516649;1047.155;31;5;3;0.2;1.4;999;3.003003003003;-0.4499517;2.036231;-0.4803334;2.032399;0.6062179;1.15;0.5916602;1.218267;
637951371474509113;1048.255;31;5;3;0.2;1.4;1099;2.72975432211101;0.2394144;0.8422153;0.2180636;0.9296163;-0.4499517;2.036231;-0.4803334;2.032399;
637951371488742311;1049.685;31;5;2;0.6;1.8;730;2.73972602739726;-0.3078177;0.6542765;-0.3669206;0.9482725;0;2.4;0.1234041;2.18503;
637951371496504055;1050.454;31;5;2;0.6;1.8;769;2.60078023407022;0.5785087;2.18944;0.5251666;2.108578;-0.3078177;0.6542765;-0.3669206;0.9482725;
637951371505496072;1051.353;31;5;2;0.6;1.8;900;2.22222222222222;-0.7794226;1.05;-0.7430062;1.108781;0.5785087;2.18944;0.5251666;2.108578;
637951371530491692;1053.852;31;5;2;0.6;1.8;2499;0.800320128051221;0.8863269;1.656283;0.6422147;1.645504;-0.7794226;1.05;-0.7430062;1.108781;
637951371541484158;1054.952;31;5;2;0.6;1.8;1099;1.81983621474067;-0.8863271;1.656283;-0.7174376;1.738154;0.8863269;1.656283;0.6422147;1.645504;
637951371550486180;1055.851;31;5;2;0.6;1.8;900;2.22222222222222;0.779423;1.05;0.7131678;1.189692;-0.8863271;1.656283;-0.7174376;1.738154;
637951371558477976;1056.651;31;5;2;0.6;1.8;800;2.5;-0.5785094;2.18944;-0.5143864;2.064521;0.779423;1.05;0.7131678;1.189692;
637951371572581143;1058.061;31;5;2;0.6;1.8;1410;1.41843971631206;0.3078185;0.6542768;0.3191293;0.9528879;-0.5785094;2.18944;-0.5143864;2.064521;
637951371602567876;1061.06;31;5;4.5;0.1;2.2;1599;2.81425891181989;-0.3762217;0.4663379;-0.3481889;0.4933833;0;2.6;0.02186499;2.557694;
637951371615560796;1062.359;31;5;4.5;0.1;2.2;1299;3.46420323325635;0.7070663;2.342649;0.6861516;2.318969;-0.3762217;0.4663379;-0.3481889;0.4933833;
637951371640563840;1064.859;31;5;4.5;0.1;2.2;2500;1.8;-0.9526277;0.9499994;-0.9219817;0.9755433;0.7070663;2.342649;0.6861516;2.318969;
637951371663542748;1067.157;31;5;4.5;0.1;2.2;2298;1.95822454308094;1.083289;1.691013;1.072247;1.700598;-0.9526277;0.9499994;-0.9219817;0.9755433;
637951371682532016;1069.056;31;5;4.5;0.1;2.2;1899;2.3696682464455;-1.083289;1.691012;-1.098127;1.719425;1.083289;1.691013;1.072247;1.700598;
637951371701632518;1070.966;31;5;4.5;0.1;2.2;1910;2.35602094240838;0.9526281;0.9500003;0.9486384;0.9753777;-1.083289;1.691012;-1.098127;1.719425;
637951371713623611;1072.166;31;5;4.5;0.1;2.2;1199;3.75312760633862;-0.7070671;2.342648;-0.660961;2.348656;0.9526281;0.9500003;0.9486384;0.9753777;
637951371727622767;1073.566;31;5;4.5;0.1;2.2;1400;3.21428571428571;0.3762226;0.4663382;0.3800748;0.5154207;-0.7070671;2.342648;-0.660961;2.348656;
637951371771602291;1077.963;31;5;4;0.1;1.4;3093;1.29324280633689;-0.2394138;0.8422151;-0.2175064;0.8645322;0;2.2;-0.0005916357;2.194743;
637951371790592076;1079.862;31;5;4;0.1;1.4;1899;2.10637177461822;0.4499513;2.036231;0.4410189;2.039519;-0.2394138;0.8422151;-0.2175064;0.8645322;
637951371805693736;1081.373;31;5;4;0.1;1.4;1511;2.64725347452019;-0.6062176;1.15;-0.5808048;1.167652;0.4499513;2.036231;0.4410189;2.039519;
637951371829683401;1083.772;31;5;4;0.1;1.4;2399;1.66736140058358;0.6893654;1.621554;0.6581374;1.63209;-0.6062176;1.15;-0.5808048;1.167652;
637951371849671469;1085.771;31;5;4;0.1;1.4;1999;2.00100050025012;-0.6893655;1.621553;-0.6641881;1.634184;0.6893654;1.621554;0.6581374;1.63209;
637951371868671255;1087.67;31;5;4;0.1;1.4;1899;2.10637177461822;0.6062179;1.15;0.6000206;1.172864;-0.6893655;1.621553;-0.6641881;1.634184;
637951371892671941;1090.069;31;5;4;0.1;1.4;2400;1.66666666666667;-0.4499517;2.036231;-0.43064;2.027438;0.6062179;1.15;0.6000206;1.172864;
637951371911759554;1091.979;31;5;4;0.1;1.4;1909;2.09533787323206;0.2394144;0.8422153;0.2317712;0.8582267;-0.4499517;2.036231;-0.43064;2.027438;
637951371946787419;1095.482;31;5;3.5;0.2;2;1304;2.6840490797546;-0.3420197;0.5603072;-0.3307441;0.6130046;0;2.5;-0.001275675;2.493378;
637951371977724371;1098.576;31;5;3.5;0.2;2;3093;1.13158745554478;0.6427875;2.266045;0.6276386;2.252982;-0.3420197;0.5603072;-0.3307441;0.6130046;
637951371995728414;1100.375;31;5;3.5;0.2;2;1800;1.94444444444444;-0.8660251;0.9999995;-0.8452827;1.008972;0.6427875;2.266045;0.6276386;2.252982;
637951372005710658;1101.375;31;5;3.5;0.2;2;999;3.5035035035035;0.9848077;1.673648;0.9071855;1.699328;-0.8660251;0.9999995;-0.8452827;1.008972;
637951372015712903;1102.374;31;5;3.5;0.2;2;999;3.5035035035035;-0.9848078;1.673648;-0.9838613;1.632276;0.9848077;1.673648;0.9071855;1.699328;
637951372033716948;1104.175;31;5;3.5;0.2;2;1800;1.94444444444444;0.8660256;1;0.8352495;1.046737;-0.9848078;1.673648;-0.9838613;1.632276;
637951372054801681;1106.283;31;5;3.5;0.2;2;2109;1.65955429113324;-0.6427882;2.266044;-0.5963449;2.25357;0.8660256;1;0.8352495;1.046737;
637951372066794376;1107.483;31;5;3.5;0.2;2;1199;2.91909924937448;0.3420205;0.5603075;0.3496439;0.6113291;-0.6427882;2.266044;-0.5963449;2.25357;
637951372565014006;1157.304;31;6;4;0.1;1.4;1300;3.07692307692308;-0.2394138;0.8422151;-0.2173208;0.8685287;0;2.2;0.008639675;2.173778;
637951372575005071;1158.304;31;6;4;0.1;1.4;1000;4;0.4499513;2.036231;0.4400733;2.029801;-0.2394138;0.8422151;-0.2173208;0.8685287;
637951372585007320;1159.303;31;6;4;0.1;1.4;999;4.004004004004;-0.6062176;1.15;-0.5687863;1.155424;0.4499513;2.036231;0.4400733;2.029801;
637951372596049801;1160.408;31;6;4;0.1;1.4;1105;3.61990950226244;0.6893654;1.621554;0.6706693;1.652922;-0.6062176;1.15;-0.5687863;1.155424;
637951372621095429;1162.913;31;6;4;0.1;1.4;2505;1.59680638722555;-0.6893655;1.621553;-0.6801319;1.634683;0.6893654;1.621554;0.6706693;1.652922;
637951372632087896;1164.012;31;6;4;0.1;1.4;1099;3.63967242948135;0.6062179;1.15;0.5942609;1.164408;-0.6893655;1.621553;-0.6801319;1.634683;
637951372643080358;1165.111;31;6;4;0.1;1.4;1099;3.63967242948135;-0.4499517;2.036231;-0.433372;2.04907;0.6062179;1.15;0.5942609;1.164408;
637951372656083286;1166.411;31;6;4;0.1;1.4;1300;3.07692307692308;0.2394144;0.8422153;0.2459106;0.880897;-0.4499517;2.036231;-0.433372;2.04907;
637951372686180045;1169.422;31;6;3;0.2;1.4;1805;1.66204986149584;-0.2394138;0.8422151;-0.2070238;0.9094062;0;2.2;0.01325262;2.183571;
637951372698072716;1170.609;31;6;3;0.2;1.4;1188;2.52525252525253;0.4499513;2.036231;0.4137583;2.019637;-0.2394138;0.8422151;-0.2070238;0.9094062;
637951372708064964;1171.609;31;6;3;0.2;1.4;999;3.003003003003;-0.6062176;1.15;-0.6258756;1.199348;0.4499513;2.036231;0.4137583;2.019637;
637951372720047652;1172.808;31;6;3;0.2;1.4;1200;2.5;0.6893654;1.621554;0.6229094;1.649184;-0.6062176;1.15;-0.6258756;1.199348;
637951372730099911;1173.813;31;6;3;0.2;1.4;1005;2.98507462686567;-0.6893655;1.621553;-0.6927451;1.645184;0.6893654;1.621554;0.6229094;1.649184;
637951372741042369;1174.907;31;6;3;0.2;1.4;1094;2.74223034734918;0.6062179;1.15;0.5637133;1.164658;-0.6893655;1.621553;-0.6927451;1.645184;
637951372760026630;1176.806;31;6;3;0.2;1.4;1899;1.57977883096367;-0.4499517;2.036231;-0.4243378;2.047469;0.6062179;1.15;0.5637133;1.164658;
637951372771139127;1177.917;31;6;3;0.2;1.4;1111;2.7002700270027;0.2394144;0.8422153;0.2063847;0.8563496;-0.4499517;2.036231;-0.4243378;2.047469;
637951372805176771;1181.32;31;6;4.5;0.1;2.2;2204;2.04174228675136;-0.3762217;0.4663379;-0.3690021;0.5009671;0;2.6;0.001981099;2.568545;
637951372819109901;1182.714;31;6;4.5;0.1;2.2;1394;3.22812051649928;0.7070663;2.342649;0.6902376;2.321225;-0.3762217;0.4663379;-0.3690021;0.5009671;
637951372833103045;1184.114;31;6;4.5;0.1;2.2;1399;3.21658327376698;-0.9526277;0.9499994;-0.9439204;0.9922522;0.7070663;2.342649;0.6902376;2.321225;
637951372844095513;1185.213;31;6;4.5;0.1;2.2;1099;4.09463148316652;1.083289;1.691013;1.051533;1.698198;-0.9526277;0.9499994;-0.9439204;0.9922522;
637951372865095296;1187.312;31;6;4.5;0.1;2.2;2099;2.14387803716055;-1.083289;1.691012;-1.05824;1.70549;1.083289;1.691013;1.051533;1.698198;
637951372893078358;1190.111;31;6;4.5;0.1;2.2;2799;1.60771704180064;0.9526281;0.9500003;0.9443014;0.9732395;-1.083289;1.691012;-1.05824;1.70549;
637951372919177105;1192.721;31;6;4.5;0.1;2.2;2610;1.72413793103448;-0.7070671;2.342648;-0.6808525;2.373722;0.9526281;0.9500003;0.9443014;0.9732395;
637951372935170394;1194.32;31;6;4.5;0.1;2.2;1599;2.81425891181989;0.3762226;0.4663382;0.398261;0.508751;-0.7070671;2.342648;-0.6808525;2.373722;
637951372953165350;1196.12;31;6;1.5;1.1;2;800;1.875;-0.3420197;0.5603072;-0.1511041;0.9357634;0;2.5;0.07434369;2.186254;
637951372966158267;1197.419;31;6;1.5;1.1;2;1299;1.15473441108545;0.6427875;2.266045;0.2784547;1.939708;-0.3420197;0.5603072;-0.1511041;0.9357634;
637951372977150736;1198.518;31;6;1.5;1.1;2;1099;1.36487716105551;-0.8660251;0.9999995;-0.6282542;1.2873;0.6427875;2.266045;0.2784547;1.939708;
637951372987142975;1199.518;31;6;1.5;1.1;2;1000;1.5;0.9848077;1.673648;0.6412104;1.752386;-0.8660251;0.9999995;-0.6282542;1.2873;
637951372994144556;1200.217;31;6;1.5;1.1;2;699;2.14592274678112;-0.9848078;1.673648;-0.50951;1.763271;0.9848077;1.673648;0.6412104;1.752386;
637951373010138148;1201.817;31;6;1.5;1.1;2;1600;0.9375;0.8660256;1;0.5187504;1.422836;-0.9848078;1.673648;-0.50951;1.763271;
637951373022130840;1203.016;31;6;1.5;1.1;2;1199;1.25104253544621;-0.6427882;2.266044;-0.3490303;2.035952;0.8660256;1;0.5187504;1.422836;
637951373031132860;1203.916;31;6;1.5;1.1;2;900;1.66666666666667;0.3420205;0.5603075;0.2465487;1.042454;-0.6427882;2.266044;-0.3490303;2.035952;
637951373053117798;1206.115;31;6;2.5;0.3;1.4;1199;2.08507089241034;-0.2394138;0.8422151;-0.2175952;0.9543729;0;2.2;0.08143071;2.15702;
637951373065110493;1207.314;31;6;2.5;0.3;1.4;1199;2.08507089241034;0.4499513;2.036231;0.4124119;2.064778;-0.2394138;0.8422151;-0.2175952;0.9543729;
637951373076212987;1208.425;31;6;2.5;0.3;1.4;1110;2.25225225225225;-0.6062176;1.15;-0.5447875;1.190199;0.4499513;2.036231;0.4124119;2.064778;
637951373085215009;1209.325;31;6;2.5;0.3;1.4;900;2.77777777777778;0.6893654;1.621554;0.6623229;1.672084;-0.6062176;1.15;-0.5447875;1.190199;
637951373095207252;1210.324;31;6;2.5;0.3;1.4;999;2.5025025025025;-0.6893655;1.621553;-0.6303169;1.683328;0.6893654;1.621554;0.6623229;1.672084;
637951373110200619;1211.823;31;6;2.5;0.3;1.4;1500;1.66666666666667;0.6062179;1.15;0.5026452;1.212157;-0.6893655;1.621553;-0.6303169;1.683328;
637951373120192862;1212.823;31;6;2.5;0.3;1.4;999;2.5025025025025;-0.4499517;2.036231;-0.4311593;2.062905;0.6062179;1.15;0.5026452;1.212157;
637951373137186680;1214.522;31;6;2.5;0.3;1.4;1699;1.47145379635079;0.2394144;0.8422153;0.2535577;0.9704432;-0.4499517;2.036231;-0.4311593;2.062905;
637951373164172740;1217.221;31;6;2;0.6;1.8;1599;1.25078173858662;-0.3078177;0.6542765;-0.1477014;0.9066457;0;2.4;0.04374467;2.269579;
637951373198319396;1220.635;31;6;2;0.6;1.8;3415;0.585651537335286;0.5785087;2.18944;0.3949431;2.190572;-0.3078177;0.6542765;-0.1477014;0.9066457;
637951373218261851;1222.63;31;6;2;0.6;1.8;1994;1.00300902708124;-0.7794226;1.05;-0.6080953;1.271033;0.5785087;2.18944;0.3949431;2.190572;
637951373230311860;1223.834;31;6;2;0.6;1.8;1205;1.6597510373444;0.8863269;1.656283;0.792075;1.844757;-0.7794226;1.05;-0.6080953;1.271033;
637951373241252247;1224.929;31;6;2;0.6;1.8;1095;1.82648401826484;-0.8863271;1.656283;-0.7437891;1.745399;0.8863269;1.656283;0.792075;1.844757;
637951373266346238;1227.438;31;6;2;0.6;1.8;2510;0.796812749003984;0.779423;1.05;0.62388;1.218966;-0.8863271;1.656283;-0.7437891;1.745399;
637951373280343407;1228.838;31;6;2;0.6;1.8;1400;1.42857142857143;-0.5785094;2.18944;-0.571118;2.269976;0.779423;1.05;0.62388;1.218966;
637951373291345879;1229.937;31;6;2;0.6;1.8;1099;1.81983621474067;0.3078185;0.6542768;0.2791307;0.8814926;-0.5785094;2.18944;-0.571118;2.269976;
637951373324703372;1233.281;31;6;3.5;0.2;2;1644;2.12895377128954;-0.3420197;0.5603072;-0.3257526;0.6548774;0;2.5;0.01016491;2.476737;
637951373338316426;1234.635;31;6;3.5;0.2;2;1354;2.58493353028065;0.6427875;2.266045;0.6330424;2.207377;-0.3420197;0.5603072;-0.3257526;0.6548774;
637951373352309571;1236.034;31;6;3.5;0.2;2;1399;2.50178699070765;-0.8660251;0.9999995;-0.8225577;1.069871;0.6427875;2.266045;0.6330424;2.207377;
637951373365302488;1237.334;31;6;3.5;0.2;2;1300;2.69230769230769;0.9848077;1.673648;0.9628531;1.707227;-0.8660251;0.9999995;-0.8225577;1.069871;
637951373382296305;1239.033;31;6;3.5;0.2;2;1699;2.06003531489111;-0.9848078;1.673648;-0.9187735;1.64968;0.9848077;1.673648;0.9628531;1.707227;
637951373400290347;1240.832;31;6;3.5;0.2;2;1799;1.94552529182879;0.8660256;1;0.8052531;1.004035;-0.9848078;1.673648;-0.9187735;1.64968;
637951373415283716;1242.331;31;6;3.5;0.2;2;1499;2.33488992661775;-0.6427882;2.266044;-0.5486626;2.232254;0.8660256;1;0.8052531;1.004035;
637951373431437341;1243.947;31;6;3.5;0.2;2;1616;2.16584158415842;0.3420205;0.5603075;0.3346891;0.6459957;-0.6427882;2.266044;-0.5486626;2.232254;
637951373886509177;1289.454;31;7;2.5;0.3;1.4;911;2.74423710208562;-0.2394138;0.8422151;-0.1671921;0.8523422;0;2.2;-0.02919722;2.241086;
637951373897501646;1290.553;31;7;2.5;0.3;1.4;1099;2.27479526842584;0.4499513;2.036231;0.3571884;2.02264;-0.2394138;0.8422151;-0.1671921;0.8523422;
637951373908494113;1291.653;31;7;2.5;0.3;1.4;1099;2.27479526842584;-0.6062176;1.15;-0.5425795;1.188398;0.4499513;2.036231;0.3571884;2.02264;
637951373918496363;1292.652;31;7;2.5;0.3;1.4;1000;2.5;0.6893654;1.621554;0.6785824;1.681927;-0.6062176;1.15;-0.5425795;1.188398;
637951373928488606;1293.652;31;7;2.5;0.3;1.4;999;2.5025025025025;-0.6893655;1.621553;-0.6078302;1.684362;0.6893654;1.621554;0.6785824;1.681927;
637951373937480625;1294.552;31;7;2.5;0.3;1.4;900;2.77777777777778;0.6062179;1.15;0.577821;1.192056;-0.6893655;1.621553;-0.6078302;1.684362;
637951373946482646;1295.451;31;7;2.5;0.3;1.4;900;2.77777777777778;-0.4499517;2.036231;-0.4494751;2.049613;0.6062179;1.15;0.577821;1.192056;
637951373953474216;1296.151;31;7;2.5;0.3;1.4;700;3.57142857142857;0.2394144;0.8422153;0.2737675;0.919673;-0.4499517;2.036231;-0.4494751;2.049613;
637951373977469608;1298.55;31;7;3;0.2;1.4;1069;2.80636108512629;-0.2394138;0.8422151;-0.1744999;0.9095315;0;2.2;0.001224326;2.102078;
637951373986461628;1299.449;31;7;3;0.2;1.4;900;3.33333333333333;0.4499513;2.036231;0.4488075;2.032642;-0.2394138;0.8422151;-0.1744999;0.9095315;
637951373996453870;1300.449;31;7;3;0.2;1.4;999;3.003003003003;-0.6062176;1.15;-0.6095838;1.158187;0.4499513;2.036231;0.4488075;2.032642;
637951374006456112;1301.448;31;7;3;0.2;1.4;1000;3;0.6893654;1.621554;0.6555725;1.696124;-0.6062176;1.15;-0.6095838;1.158187;
637951374018448809;1302.648;31;7;3;0.2;1.4;1199;2.50208507089241;-0.6893655;1.621553;-0.6277412;1.616045;0.6893654;1.621554;0.6555725;1.696124;
637951374029441279;1303.747;31;7;3;0.2;1.4;1099;2.72975432211101;0.6062179;1.15;0.619581;1.154476;-0.6893655;1.621553;-0.6277412;1.616045;
637951374039433524;1304.747;31;7;3;0.2;1.4;1000;3;-0.4499517;2.036231;-0.4230014;2.050157;0.6062179;1.15;0.619581;1.154476;
637951374051536243;1305.957;31;7;3;0.2;1.4;1210;2.47933884297521;0.2394144;0.8422153;0.2434877;0.8877355;-0.4499517;2.036231;-0.4230014;2.050157;
637951374069540285;1307.757;31;7;1.5;1.1;2;800;1.875;-0.3420197;0.5603072;-0.1815679;0.861907;0;2.5;0.0324811;2.161587;
637951374079532529;1308.756;31;7;1.5;1.1;2;999;1.5015015015015;0.6427875;2.266045;0.3119046;1.966261;-0.3420197;0.5603072;-0.1815679;0.861907;
637951374089524775;1309.755;31;7;1.5;1.1;2;1000;1.5;-0.8660251;0.9999995;-0.6641706;1.307719;0.6427875;2.266045;0.3119046;1.966261;
637951374096526344;1310.455;31;7;1.5;1.1;2;700;2.14285714285714;0.9848077;1.673648;0.6080468;1.690757;-0.8660251;0.9999995;-0.6641706;1.307719;
637951374105518366;1311.355;31;7;1.5;1.1;2;899;1.66852057842047;-0.9848078;1.673648;-0.5056275;1.743179;0.9848077;1.673648;0.6080468;1.690757;
637951374115510610;1312.355;31;7;1.5;1.1;2;1000;1.5;0.8660256;1;0.5859411;1.315971;-0.9848078;1.673648;-0.5056275;1.743179;
637951374124503924;1313.254;31;7;1.5;1.1;2;899;1.66852057842047;-0.6427882;2.266044;-0.3670444;2.186492;0.8660256;1;0.5859411;1.315971;
637951374133505947;1314.153;31;7;1.5;1.1;2;900;1.66666666666667;0.3420205;0.5603075;0.2886164;0.9940522;-0.6427882;2.266044;-0.3670444;2.186492;
637951374150499765;1315.853;31;7;2;0.6;1.8;899;2.22469410456062;-0.3078177;0.6542765;-0.2020238;0.8238144;0;2.4;0.06020079;2.255671;
637951374162712312;1317.082;31;7;2;0.6;1.8;1229;1.6273393002441;0.5785087;2.18944;0.2990011;2.296149;-0.3078177;0.6542765;-0.2020238;0.8238144;
637951374173477625;1318.152;31;7;2;0.6;1.8;1069;1.87090739008419;-0.7794226;1.05;-0.6468924;1.122431;0.5785087;2.18944;0.2990011;2.296149;
637951374183479895;1319.151;31;7;2;0.6;1.8;1000;2;0.8863269;1.656283;0.6565159;1.723394;-0.7794226;1.05;-0.6468924;1.122431;
637951374192471914;1320.051;31;7;2;0.6;1.8;900;2.22222222222222;-0.8863271;1.656283;-0.7108169;1.742259;0.8863269;1.656283;0.6565159;1.723394;
637951374201583959;1320.961;31;7;2;0.6;1.8;911;2.1953896816685;0.779423;1.05;0.7206338;1.277797;-0.8863271;1.656283;-0.7108169;1.742259;
637951374222568674;1323.061;31;7;2;0.6;1.8;2099;0.952834683182468;-0.5785094;2.18944;-0.4249728;2.167959;0.779423;1.05;0.7206338;1.277797;
637951374233571145;1324.16;31;7;2;0.6;1.8;1099;1.81983621474067;0.3078185;0.6542768;0.2369852;0.8646241;-0.5785094;2.18944;-0.4249728;2.167959;
637951374273550124;1328.158;31;7;4;0.1;1.4;1000;4;-0.2394138;0.8422151;-0.2656684;0.8700073;0;2.2;0.0187315;2.172795;
637951374286543043;1329.458;31;7;4;0.1;1.4;1299;3.07929176289453;0.4499513;2.036231;0.4770609;2.013877;-0.2394138;0.8422151;-0.2656684;0.8700073;
637951374301536409;1330.957;31;7;4;0.1;1.4;1499;2.66844563042028;-0.6062176;1.15;-0.5898005;1.160913;0.4499513;2.036231;0.4770609;2.013877;
637951374312538883;1332.057;31;7;4;0.1;1.4;1100;3.63636363636364;0.6893654;1.621554;0.696452;1.642379;-0.6062176;1.15;-0.5898005;1.160913;
637951374326532024;1333.456;31;7;4;0.1;1.4;1399;2.85918513223731;-0.6893655;1.621553;-0.6816314;1.645518;0.6893654;1.621554;0.696452;1.642379;
637951374352617882;1336.066;31;7;4;0.1;1.4;2609;1.53315446531238;0.6062179;1.15;0.5984278;1.173795;-0.6893655;1.621553;-0.6816314;1.645518;
637951374368521454;1337.655;31;7;4;0.1;1.4;1590;2.51572327044025;-0.4499517;2.036231;-0.4568573;1.998587;0.6062179;1.15;0.5984278;1.173795;
637951374379613954;1338.764;31;7;4;0.1;1.4;1109;3.6068530207394;0.2394144;0.8422153;0.2287522;0.8387177;-0.4499517;2.036231;-0.4568573;1.998587;
637951374415592024;1342.363;31;7;4.5;0.1;2.2;1999;2.25112556278139;-0.3762217;0.4663379;-0.3662271;0.500651;0;2.6;0.0008281609;2.593144;
637951374429585167;1343.762;31;7;4.5;0.1;2.2;1399;3.21658327376698;0.7070663;2.342649;0.6999248;2.328328;-0.3762217;0.4663379;-0.3662271;0.500651;
637951374454580784;1346.261;31;7;4.5;0.1;2.2;2499;1.80072028811525;-0.9526277;0.9499994;-0.9498168;0.9396158;0.7070663;2.342649;0.6999248;2.328328;
637951374478571289;1348.66;31;7;4.5;0.1;2.2;2399;1.87578157565652;1.083289;1.691013;1.052583;1.710789;-0.9526277;0.9499994;-0.9498168;0.9396158;
637951374510660517;1351.87;31;7;4.5;0.1;2.2;3210;1.4018691588785;-1.083289;1.691012;-1.068983;1.648008;1.083289;1.691013;1.052583;1.710789;
637951374546643326;1355.468;31;7;4.5;0.1;2.2;3598;1.25069483046137;0.9526281;0.9500003;0.9319962;0.9782053;-1.083289;1.691012;-1.068983;1.648008;
637951374558643204;1356.667;31;7;4.5;0.1;2.2;1199;3.75312760633862;-0.7070671;2.342648;-0.7123924;2.339836;0.9526281;0.9500003;0.9319962;0.9782053;
637951374570633075;1357.867;31;7;4.5;0.1;2.2;1199;3.75312760633862;0.3762226;0.4663382;0.3755023;0.480073;-0.7070671;2.342648;-0.7123924;2.339836;
637951374610612307;1361.865;31;7;3.5;0.2;2;1399;2.50178699070765;-0.3420197;0.5603072;-0.3108906;0.6411222;0;2.5;0.008109067;2.458498;
637951374622604997;1363.064;31;7;3.5;0.2;2;1199;2.91909924937448;0.6427875;2.266045;0.5786846;2.325855;-0.3420197;0.5603072;-0.3108906;0.6411222;
637951374641599266;1364.964;31;7;3.5;0.2;2;1900;1.84210526315789;-0.8660251;0.9999995;-0.8326869;1.036348;0.6427875;2.266045;0.5786846;2.325855;
637951374655712432;1366.374;31;7;3.5;0.2;2;1410;2.4822695035461;0.9848077;1.673648;0.9118566;1.711552;-0.8660251;0.9999995;-0.8326869;1.036348;
637951374667695117;1367.573;31;7;3.5;0.2;2;1199;2.91909924937448;-0.9848078;1.673648;-0.9244917;1.666883;0.9848077;1.673648;0.9118566;1.711552;
637951374678697600;1368.673;31;7;3.5;0.2;2;1100;3.18181818181818;0.8660256;1;0.8565059;1.016279;-0.9848078;1.673648;-0.9244917;1.666883;
637951374690690290;1369.872;31;7;3.5;0.2;2;1199;2.91909924937448;-0.6427882;2.266044;-0.603329;2.221357;0.8660256;1;0.8565059;1.016279;
637951374702682986;1371.072;31;7;3.5;0.2;2;1199;2.91909924937448;0.3420205;0.5603075;0.3714092;0.6542683;-0.6427882;2.266044;-0.603329;2.221357;
