637951388701537564;337.2816;32;0;3.5;0.2;2;3099;1.12939657954179;-0.3420197;0.5603072;-0.3523173;0.6084466;0;2.5;0.01676472;2.496178;
637951388719521600;339.0805;32;0;3.5;0.2;2;1799;1.94552529182879;0.6427875;2.266045;0.5469281;2.238374;-0.3420197;0.5603072;-0.3523173;0.6084466;
637951388745627468;341.6907;32;0;3.5;0.2;2;2610;1.34099616858238;-0.8660251;0.9999995;-0.8419886;1.096968;0.6427875;2.266045;0.5469281;2.238374;
637951388761611055;343.2897;32;0;3.5;0.2;2;1599;2.18886804252658;0.9848077;1.673648;0.9231967;1.707093;-0.8660251;0.9999995;-0.8419886;1.096968;
637951388783605989;345.4886;32;0;3.5;0.2;2;2199;1.59163256025466;-0.9848078;1.673648;-0.9073992;1.69042;0.9848077;1.673648;0.9231967;1.707093;
637951388815586514;348.6872;32;0;3.5;0.2;2;3199;1.09409190371991;0.8660256;1;0.8368644;1.027766;-0.9848078;1.673648;-0.9073992;1.69042;
637951388829579650;350.0865;32;0;3.5;0.2;2;1399;2.50178699070765;-0.6427882;2.266044;-0.5542666;2.236717;0.8660256;1;0.8368644;1.027766;
637951388846573468;351.786;32;0;3.5;0.2;2;1700;2.05882352941176;0.3420205;0.5603075;0.2958301;0.6320094;-0.6427882;2.266044;-0.5542666;2.236717;
637951388873679664;354.496;32;0;1.5;1.1;2;1811;0.82827167310878;-0.3420197;0.5603072;-0.232979;0.9162102;0;2.5;0.05167716;2.431366;
637951388883660424;355.4956;32;0;1.5;1.1;2;1000;1.5;0.6427875;2.266045;0.4855236;2.030944;-0.3420197;0.5603072;-0.232979;0.9162102;
637951388896652543;356.7946;32;0;1.5;1.1;2;1299;1.15473441108545;-0.8660251;0.9999995;-0.6867273;1.361816;0.6427875;2.266045;0.4855236;2.030944;
637951388916637032;358.7935;32;0;1.5;1.1;2;1999;0.750375187593797;0.9848077;1.673648;0.8233944;1.808438;-0.8660251;0.9999995;-0.6867273;1.361816;
637951388926629275;359.793;32;0;1.5;1.1;2;999;1.5015015015015;-0.9848078;1.673648;-0.6659111;1.778683;0.9848077;1.673648;0.8233944;1.808438;
637951388940632420;361.1925;32;0;1.5;1.1;2;1400;1.07142857142857;0.8660256;1;0.7887227;1.500346;-0.9848078;1.673648;-0.6659111;1.778683;
637951388951624888;362.2922;32;0;1.5;1.1;2;1100;1.36363636363636;-0.6427882;2.266044;-0.4041626;2.011577;0.8660256;1;0.7887227;1.500346;
637951388962617357;363.3916;32;0;1.5;1.1;2;1099;1.36487716105551;0.3420205;0.5603075;0.273021;0.9299358;-0.6427882;2.266044;-0.4041626;2.011577;
637951389003706585;367.5008;32;0;3;0.2;1.4;2199;1.36425648021828;-0.2394138;0.8422151;-0.1754042;0.912191;0;2.2;-0.01013483;2.198367;
637951389018699956;369.0002;32;0;3;0.2;1.4;1499;2.00133422281521;0.4499513;2.036231;0.3809336;2.04513;-0.2394138;0.8422151;-0.1754042;0.912191;
637951389052687588;372.3983;32;0;3;0.2;1.4;3398;0.882872277810477;-0.6062176;1.15;-0.5723389;1.150209;0.4499513;2.036231;0.3809336;2.04513;
637951389065680506;373.6978;32;0;3;0.2;1.4;1299;2.3094688221709;0.6893654;1.621554;0.609725;1.601203;-0.6062176;1.15;-0.5723389;1.150209;
637951389083674548;375.497;32;0;3;0.2;1.4;1799;1.66759310728182;-0.6893655;1.621553;-0.6888831;1.650708;0.6893654;1.621554;0.609725;1.601203;
637951389125653979;379.695;32;0;3;0.2;1.4;4198;0.714626012386851;0.6062179;1.15;0.6277302;1.151241;-0.6893655;1.621553;-0.6888831;1.650708;
637951389162742305;383.4044;32;0;3;0.2;1.4;3709;0.808843354003775;-0.4499517;2.036231;-0.4432966;2.026567;0.6062179;1.15;0.6277302;1.151241;
637951389188738969;386.0033;32;0;3;0.2;1.4;2599;1.15429011158138;0.2394144;0.8422153;0.2114322;0.9144394;-0.4499517;2.036231;-0.4432966;2.026567;
637951389222721230;389.4015;32;0;2;0.6;1.8;2393;0.835770998746344;-0.3078177;0.6542765;-0.2217622;0.8269364;0;2.4;-0.009959714;2.242028;
637951389241715493;391.3009;32;0;2;0.6;1.8;1899;1.05318588730911;0.5785087;2.18944;0.556847;2.254464;-0.3078177;0.6542765;-0.2217622;0.8269364;
637951389268809844;394.0104;32;0;2;0.6;1.8;2710;0.738007380073801;-0.7794226;1.05;-0.7387335;1.096351;0.5785087;2.18944;0.556847;2.254464;
637951389282802989;395.41;32;0;2;0.6;1.8;1400;1.42857142857143;0.8863269;1.656283;0.6894134;1.670735;-0.7794226;1.05;-0.7387335;1.096351;
637951389295795906;396.7092;32;0;2;0.6;1.8;1299;1.53964588144727;-0.8863271;1.656283;-0.70619;1.623447;0.8863269;1.656283;0.6894134;1.670735;
637951389309789049;398.1089;32;0;2;0.6;1.8;1400;1.42857142857143;0.779423;1.05;0.7433769;1.283633;-0.8863271;1.656283;-0.70619;1.623447;
637951389320781518;399.2083;32;0;2;0.6;1.8;1099;1.81983621474067;-0.5785094;2.18944;-0.6157482;2.19035;0.779423;1.05;0.7433769;1.283633;
637951389340776008;401.2072;32;0;2;0.6;1.8;1999;1.00050025012506;0.3078185;0.6542768;0.2708619;0.8357767;-0.5785094;2.18944;-0.6157482;2.19035;
637951389420853993;409.2148;32;0;4.5;0.1;2.2;3199;1.40668959049703;-0.3762217;0.4663379;-0.3791234;0.5111374;0;2.6;-0.0001777532;2.586978;
637951389475936363;414.7233;32;0;4.5;0.1;2.2;5508;0.816993464052288;0.7070663;2.342649;0.6904982;2.371566;-0.3762217;0.4663379;-0.3791234;0.5111374;
637951389500921977;417.2222;32;0;4.5;0.1;2.2;2499;1.80072028811525;-0.9526277;0.9499994;-0.9261377;0.9730192;0.7070663;2.342649;0.6904982;2.371566;
637951389526907823;419.8206;32;0;4.5;0.1;2.2;2598;1.73210161662818;1.083289;1.691013;1.061074;1.705804;-0.9526277;0.9499994;-0.9261377;0.9730192;
637951389564896242;423.6192;32;0;4.5;0.1;2.2;3799;1.18452224269545;-1.083289;1.691012;-1.071388;1.719158;1.083289;1.691013;1.061074;1.705804;
637951389599872348;427.1174;32;0;4.5;0.1;2.2;3498;1.28644939965695;0.9526281;0.9500003;0.9477677;0.9751388;-1.083289;1.691012;-1.071388;1.719158;
637951389632966126;430.4267;32;0;4.5;0.1;2.2;3309;1.3599274705349;-0.7070671;2.342648;-0.6789581;2.359856;0.9526281;0.9500003;0.9477677;0.9751388;
637951389666960465;433.8255;32;0;4.5;0.1;2.2;3399;1.32391879964696;0.3762226;0.4663382;0.3445961;0.4990822;-0.7070671;2.342648;-0.6789581;2.359856;
637951389704941498;437.6236;32;0;2.5;0.3;1.4;2099;1.19104335397808;-0.2394138;0.8422151;-0.213274;0.963133;0;2.2;0.01610908;2.223178;
637951389718054433;438.9341;32;0;2.5;0.3;1.4;1310;1.90839694656489;0.4499513;2.036231;0.4371715;2.122187;-0.2394138;0.8422151;-0.213274;0.963133;
637951389754032521;442.5327;32;0;2.5;0.3;1.4;3599;0.694637399277577;-0.6062176;1.15;-0.5152346;1.256123;0.4499513;2.036231;0.4371715;2.122187;
637951389772026561;444.332;32;0;2.5;0.3;1.4;1799;1.38966092273485;0.6893654;1.621554;0.6091931;1.657681;-0.6062176;1.15;-0.5152346;1.256123;
637951389791010826;446.2306;32;0;2.5;0.3;1.4;1899;1.31648235913639;-0.6893655;1.621553;-0.6122695;1.644176;0.6893654;1.621554;0.6091931;1.657681;
637951389807004416;447.8299;32;0;2.5;0.3;1.4;1599;1.56347717323327;0.6062179;1.15;0.544841;1.228328;-0.6893655;1.621553;-0.6122695;1.644176;
637951389817996888;448.9296;32;0;2.5;0.3;1.4;1100;2.27272727272727;-0.4499517;2.036231;-0.4735556;1.963234;0.6062179;1.15;0.544841;1.228328;
637951389852984745;452.428;32;0;2.5;0.3;1.4;3498;0.714694110920526;0.2394144;0.8422153;0.265514;0.957623;-0.4499517;2.036231;-0.4735556;1.963234;
637951389968050686;463.9337;32;0;4;0.1;1.4;7896;0.506585612968592;-0.2394138;0.8422151;-0.2637683;0.8661633;0;2.2;0.005116474;2.159557;
637951389990035625;466.1332;32;0;4;0.1;1.4;2200;1.81818181818182;0.4499513;2.036231;0.432501;2.023937;-0.2394138;0.8422151;-0.2637683;0.8661633;
637951390040112692;471.1413;32;0;4;0.1;1.4;5008;0.798722044728434;-0.6062176;1.15;-0.5961703;1.154046;0.4499513;2.036231;0.432501;2.023937;
637951390092094370;476.339;32;0;4;0.1;1.4;5198;0.769526741054252;0.6893654;1.621554;0.7000044;1.646406;-0.6062176;1.15;-0.5961703;1.154046;
637951390117095675;478.8391;32;0;4;0.1;1.4;2500;1.6;-0.6893655;1.621553;-0.7112554;1.614183;0.6893654;1.621554;0.7000044;1.646406;
637951390160168101;483.1467;32;0;4;0.1;1.4;4308;0.928505106778087;0.6062179;1.15;0.6086268;1.18612;-0.6893655;1.621553;-0.7112554;1.614183;
637951390186163943;485.7459;32;0;4;0.1;1.4;2599;1.5390534821085;-0.4499517;2.036231;-0.4641396;2.062466;0.6062179;1.15;0.6086268;1.18612;
637951390215260476;488.6555;32;0;4;0.1;1.4;2910;1.3745704467354;0.2394144;0.8422153;0.2379396;0.8280036;-0.4499517;2.036231;-0.4641396;2.062466;
637951391327517842;599.8815;32;1;3;0.2;1.4;4398;0.682128240109141;-0.2394138;0.8422151;-0.2205958;0.912382;0;2.2;0.07854095;2.195254;
637951391340510768;601.181;32;1;3;0.2;1.4;1300;2.30769230769231;0.4499513;2.036231;0.3604936;2.039542;-0.2394138;0.8422151;-0.2205958;0.912382;
637951391374608424;604.5909;32;1;3;0.2;1.4;3410;0.879765395894428;-0.6062176;1.15;-0.5675555;1.110049;0.4499513;2.036231;0.3604936;2.039542;
637951391400594260;607.1893;32;1;3;0.2;1.4;2598;1.15473441108545;0.6893654;1.621554;0.6248763;1.676004;-0.6062176;1.15;-0.5675555;1.110049;
637951391447574808;611.8868;32;1;3;0.2;1.4;4698;0.638569604086845;-0.6893655;1.621553;-0.7073531;1.647418;0.6893654;1.621554;0.6248763;1.676004;
637951391478564800;614.9857;32;1;3;0.2;1.4;3099;0.968054211035818;0.6062179;1.15;0.5954541;1.239532;-0.6893655;1.621553;-0.7073531;1.647418;
637951391496548839;616.785;32;1;3;0.2;1.4;1799;1.66759310728182;-0.4499517;2.036231;-0.3819188;1.990448;0.6062179;1.15;0.5954541;1.239532;
637951391545656665;621.6948;32;1;3;0.2;1.4;4910;0.610997963340122;0.2394144;0.8422153;0.3178756;0.8373606;-0.4499517;2.036231;-0.3819188;1.990448;
637951391637597311;630.8896;32;1;4.5;0.1;2.2;4998;0.900360144057623;-0.3762217;0.4663379;-0.3579605;0.4657437;0;2.6;0.02142084;2.558634;
637951391707673050;637.8973;32;1;4.5;0.1;2.2;7008;0.642123287671233;0.7070663;2.342649;0.7027611;2.317764;-0.3762217;0.4663379;-0.3579605;0.4657437;
637951391830734748;650.2028;32;1;4.5;0.1;2.2;12305;0.365704997968306;-0.9526277;0.9499994;-0.9146979;0.9617158;0.7070663;2.342649;0.7027611;2.317764;
637951391888705080;656.0003;32;1;4.5;0.1;2.2;5797;0.776263584612731;1.083289;1.691013;1.079822;1.689348;-0.9526277;0.9499994;-0.9146979;0.9617158;
637951392084717136;675.6019;32;1;4.5;0.1;2.2;19602;0.229568411386593;-1.083289;1.691012;-1.050698;1.692;1.083289;1.691013;1.079822;1.689348;
637951392166795570;683.8092;32;1;4.5;0.1;2.2;8207;0.548312416230048;0.9526281;0.9500003;0.9645785;0.9497342;-1.083289;1.691012;-1.050698;1.692;
637951392193781633;686.5081;32;1;4.5;0.1;2.2;2699;1.66728417932568;-0.7070671;2.342648;-0.6901212;2.337171;0.9526281;0.9500003;0.9645785;0.9497342;
637951392239764371;691.1061;32;1;4.5;0.1;2.2;4598;0.97868638538495;0.3762226;0.4663382;0.3585165;0.4990113;-0.7070671;2.342648;-0.6901212;2.337171;
637951392292851698;696.4149;32;1;3.5;0.2;2;2199;1.59163256025466;-0.3420197;0.5603072;-0.2559946;0.5712577;0;2.5;0.00719348;2.421996;
637951392316837080;698.8135;32;1;3.5;0.2;2;2399;1.45894122551063;0.6427875;2.266045;0.558141;2.257625;-0.3420197;0.5603072;-0.2559946;0.5712577;
637951392333830899;700.5129;32;1;3.5;0.2;2;1699;2.06003531489111;-0.8660251;0.9999995;-0.8549819;1.063318;0.6427875;2.266045;0.558141;2.257625;
637951392406797286;707.8095;32;1;3.5;0.2;2;7297;0.479649170892147;0.9848077;1.673648;1.007866;1.644834;-0.8660251;0.9999995;-0.8549819;1.063318;
637951392422900902;709.4198;32;1;3.5;0.2;2;1610;2.17391304347826;-0.9848078;1.673648;-0.9221191;1.636496;0.9848077;1.673648;1.007866;1.644834;
637951392444885839;711.6184;32;1;3.5;0.2;2;2199;1.59163256025466;0.8660256;1;0.8901933;0.994101;-0.9848078;1.673648;-0.9221191;1.636496;
637951392499858186;717.116;32;1;3.5;0.2;2;5498;0.636595125500182;-0.6427882;2.266044;-0.6139711;2.208403;0.8660256;1;0.8901933;0.994101;
637951392516852002;718.8154;32;1;3.5;0.2;2;1699;2.06003531489111;0.3420205;0.5603075;0.3280152;0.6564366;-0.6427882;2.266044;-0.6139711;2.208403;
637951392582938721;725.4235;32;1;2.5;0.3;1.4;2199;1.1368804001819;-0.2394138;0.8422151;-0.1865612;0.9683262;0;2.2;0.0882685;2.217568;
637951392596931864;726.8229;32;1;2.5;0.3;1.4;1399;1.78699070764832;0.4499513;2.036231;0.467057;2.160787;-0.2394138;0.8422151;-0.1865612;0.9683262;
637951392626923836;729.8218;32;1;2.5;0.3;1.4;2999;0.833611203734578;-0.6062176;1.15;-0.5338007;1.206349;0.4499513;2.036231;0.467057;2.160787;
637951392685887078;735.7184;32;1;2.5;0.3;1.4;5897;0.423944378497541;0.6893654;1.621554;0.657976;1.643589;-0.6062176;1.15;-0.5338007;1.206349;
637951392699880223;737.1178;32;1;2.5;0.3;1.4;1399;1.78699070764832;-0.6893655;1.621553;-0.6642588;1.641833;0.6893654;1.621554;0.657976;1.643589;
637951392724985861;739.6282;32;1;2.5;0.3;1.4;2510;0.99601593625498;0.6062179;1.15;0.5080582;1.23463;-0.6893655;1.621553;-0.6642588;1.641833;
637951392742969899;741.4271;32;1;2.5;0.3;1.4;1799;1.38966092273485;-0.4499517;2.036231;-0.3860357;2.010917;0.6062179;1.15;0.5080582;1.23463;
637951392793951345;746.5248;32;1;2.5;0.3;1.4;5098;0.490388387602982;0.2394144;0.8422153;0.2087588;0.8191923;-0.4499517;2.036231;-0.3860357;2.010917;
637951392815946294;748.7241;32;1;1.5;1.1;2;1200;1.25;-0.3420197;0.5603072;-0.2426161;0.8048785;0;2.5;0.06703459;2.21837;
637951392826938759;749.8231;32;1;1.5;1.1;2;1099;1.36487716105551;0.6427875;2.266045;0.8988582;2.119992;-0.3420197;0.5603072;-0.2426161;0.8048785;
637951392868948194;754.0249;32;1;1.5;1.1;2;4202;0.356972870061875;-0.8660251;0.9999995;-0.5126296;1.320404;0.6427875;2.266045;0.8988582;2.119992;
637951392929994347;760.1293;32;1;1.5;1.1;2;6104;0.245740498034076;0.9848077;1.673648;0.6335126;1.549992;-0.8660251;0.9999995;-0.5126296;1.320404;
637951392944987712;761.6287;32;1;1.5;1.1;2;1499;1.00066711140761;-0.9848078;1.673648;-0.8403355;1.674663;0.9848077;1.673648;0.6335126;1.549992;
637951392984086953;765.538;32;1;1.5;1.1;2;3909;0.383729854182655;0.8660256;1;0.672424;1.310768;-0.9848078;1.673648;-0.8403355;1.674663;
637951392996079646;766.7376;32;1;1.5;1.1;2;1200;1.25;-0.6427882;2.266044;-0.4810678;1.946751;0.8660256;1;0.672424;1.310768;
637951393012063231;768.3365;32;1;1.5;1.1;2;1599;0.938086303939963;0.3420205;0.5603075;0.2942985;1.10029;-0.6427882;2.266044;-0.4810678;1.946751;
637951393048161345;771.9464;32;1;2;0.6;1.8;2410;0.829875518672199;-0.3078177;0.6542765;-0.1652323;0.8190762;0;2.4;-0.03797538;2.451366;
637951393065155159;773.6453;32;1;2;0.6;1.8;1699;1.17716303708064;0.5785087;2.18944;0.5385963;2.052862;-0.3078177;0.6542765;-0.1652323;0.8190762;
637951393085149648;775.6445;32;1;2;0.6;1.8;1999;1.00050025012506;-0.7794226;1.05;-0.6145308;1.199275;0.5785087;2.18944;0.5385963;2.052862;
637951393115136386;778.6431;32;1;2;0.6;1.8;2999;0.666888962987663;0.8863269;1.656283;0.8124169;1.660513;-0.7794226;1.05;-0.6145308;1.199275;
637951393141122225;781.2419;32;1;2;0.6;1.8;2599;0.769526741054252;-0.8863271;1.656283;-0.6717125;1.547466;0.8863269;1.656283;0.8124169;1.660513;
637951393157115815;782.8412;32;1;2;0.6;1.8;1599;1.25078173858662;0.779423;1.05;0.7478119;1.170433;-0.8863271;1.656283;-0.6717125;1.547466;
637951393203206168;787.4501;32;1;2;0.6;1.8;4609;0.433933608157952;-0.5785094;2.18944;-0.3955955;2.073391;0.779423;1.05;0.7478119;1.170433;
637951393232192678;790.3489;32;1;2;0.6;1.8;2899;0.689893066574681;0.3078185;0.6542768;0.3821729;0.9224309;-0.5785094;2.18944;-0.3955955;2.073391;
637951393367235761;803.8535;32;1;4;0.1;1.4;5497;0.727669637984355;-0.2394138;0.8422151;-0.2403981;0.8455335;0;2.2;0.01055406;2.207597;
637951393410325437;808.1628;32;1;4;0.1;1.4;4309;0.928289626363425;0.4499513;2.036231;0.4568329;2.017966;-0.2394138;0.8422151;-0.2403981;0.8455335;
637951393457305991;812.8606;32;1;4;0.1;1.4;4698;0.851426138782461;-0.6062176;1.15;-0.582999;1.187899;0.4499513;2.036231;0.4568329;2.017966;
637951393491293625;816.2589;32;1;4;0.1;1.4;3398;1.17716303708064;0.6893654;1.621554;0.6720903;1.632866;-0.6062176;1.15;-0.582999;1.187899;
637951393528281924;819.9575;32;1;4;0.1;1.4;3699;1.08137334414707;-0.6893655;1.621553;-0.6780975;1.603003;0.6893654;1.621554;0.6720903;1.632866;
637951393561369365;823.267;32;1;4;0.1;1.4;3310;1.20845921450151;0.6062179;1.15;0.5723804;1.155426;-0.6893655;1.621553;-0.6780975;1.603003;
637951393605353865;827.6648;32;1;4;0.1;1.4;4398;0.909504320145521;-0.4499517;2.036231;-0.4103355;2.012527;0.6062179;1.15;0.5723804;1.155426;
637951393695418674;836.6718;32;1;4;0.1;1.4;9007;0.444099034084601;0.2394144;0.8422153;0.2432414;0.8728814;-0.4499517;2.036231;-0.4103355;2.012527;
637951395149964661;982.1266;32;2;4.5;0.1;2.2;4909;0.916683642289672;-0.3762217;0.4663379;-0.3910687;0.5003152;0;2.6;-0.002044255;2.630978;
637951395240925092;991.2227;32;2;4.5;0.1;2.2;9096;0.494722955145119;0.7070663;2.342649;0.6918393;2.341617;-0.3762217;0.4663379;-0.3910687;0.5003152;
637951395296017470;996.7312;32;2;4.5;0.1;2.2;5508;0.816993464052288;-0.9526277;0.9499994;-0.9382005;0.9700649;0.7070663;2.342649;0.6918393;2.341617;
637951395365983181;1003.728;32;2;4.5;0.1;2.2;6997;0.643132771187652;1.083289;1.691013;1.089323;1.727857;-0.9526277;0.9499994;-0.9382005;0.9700649;
637951395463102167;1013.44;32;2;4.5;0.1;2.2;9712;0.46334431630972;-1.083289;1.691012;-1.051061;1.713276;1.083289;1.691013;1.089323;1.727857;
637951395512035625;1018.333;32;2;4.5;0.1;2.2;4893;0.919681177191907;0.9526281;0.9500003;0.9115306;0.9398788;-1.083289;1.691012;-1.051061;1.713276;
637951395566107764;1023.741;32;2;4.5;0.1;2.2;5408;0.832100591715976;-0.7070671;2.342648;-0.6668254;2.322212;0.9526281;0.9500003;0.9115306;0.9398788;
637951395685104497;1035.64;32;2;4.5;0.1;2.2;11900;0.378151260504202;0.3762226;0.4663382;0.3501783;0.4879051;-0.7070671;2.342648;-0.6668254;2.322212;
637951395732145064;1040.344;32;2;3;0.2;1.4;3104;0.966494845360825;-0.2394138;0.8422151;-0.2275106;0.7789295;0;2.2;-0.009771718;2.207596;
637951395787167422;1045.847;32;2;3;0.2;1.4;5503;0.545157186988915;0.4499513;2.036231;0.4829983;2.067462;-0.2394138;0.8422151;-0.2275106;0.7789295;
637951395822107687;1049.34;32;2;3;0.2;1.4;3494;0.858614768174013;-0.6062176;1.15;-0.5929703;1.183838;0.4499513;2.036231;0.4829983;2.067462;
637951395841093209;1051.239;32;2;3;0.2;1.4;1899;1.57977883096367;0.6893654;1.621554;0.6422328;1.587569;-0.6062176;1.15;-0.5929703;1.183838;
637951395857196781;1052.849;32;2;3;0.2;1.4;1611;1.86219739292365;-0.6893655;1.621553;-0.6154992;1.604655;0.6893654;1.621554;0.6422328;1.587569;
637951395881185204;1055.248;32;2;3;0.2;1.4;2399;1.25052105043768;0.6062179;1.15;0.5653991;1.202054;-0.6893655;1.621553;-0.6154992;1.604655;
637951395907281065;1057.858;32;2;3;0.2;1.4;2610;1.14942528735632;-0.4499517;2.036231;-0.406351;1.96693;0.6062179;1.15;0.5653991;1.202054;
637951395925275109;1059.657;32;2;3;0.2;1.4;1799;1.66759310728182;0.2394144;0.8422153;0.2212643;0.8850136;-0.4499517;2.036231;-0.406351;1.96693;
637951395972253958;1064.355;32;2;3.5;0.2;2;1899;1.84307530279094;-0.3420197;0.5603072;-0.2663245;0.6039544;0;2.5;-0.01874269;2.409666;
637951395988247545;1065.954;32;2;3.5;0.2;2;1599;2.18886804252658;0.6427875;2.266045;0.5860569;2.300934;-0.3420197;0.5603072;-0.2663245;0.6039544;
637951396019344533;1069.064;32;2;3.5;0.2;2;3110;1.12540192926045;-0.8660251;0.9999995;-0.8766909;1.07725;0.6427875;2.266045;0.5860569;2.300934;
637951396054322388;1072.563;32;2;3.5;0.2;2;3498;1.00057175528874;0.9848077;1.673648;0.9335984;1.755519;-0.8660251;0.9999995;-0.8766909;1.07725;
637951396071316205;1074.262;32;2;3.5;0.2;2;1699;2.06003531489111;-0.9848078;1.673648;-0.9049668;1.733713;0.9848077;1.673648;0.9335984;1.755519;
637951396099302493;1077.06;32;2;3.5;0.2;2;2798;1.25089349535382;0.8660256;1;0.8284697;1.05481;-0.9848078;1.673648;-0.9049668;1.733713;
637951396120297210;1079.159;32;2;3.5;0.2;2;2099;1.66746069556932;-0.6427882;2.266044;-0.5911092;2.235538;0.8660256;1;0.8284697;1.05481;
637951396151284167;1082.258;32;2;3.5;0.2;2;3099;1.12939657954179;0.3420205;0.5603075;0.3348184;0.6397531;-0.6427882;2.266044;-0.5911092;2.235538;
637951396207363366;1087.867;32;2;1.5;1.1;2;2599;0.577145055790689;-0.3420197;0.5603072;-0.06077658;1.002779;0;2.5;0.1005589;2.180233;
637951396223358105;1089.466;32;2;1.5;1.1;2;1599;0.938086303939963;0.6427875;2.266045;0.587711;2.085468;-0.3420197;0.5603072;-0.06077658;1.002779;
637951396236469220;1090.776;32;2;1.5;1.1;2;1311;1.1441647597254;-0.8660251;0.9999995;-0.7082643;1.226347;0.6427875;2.266045;0.587711;2.085468;
637951396269446632;1094.075;32;2;1.5;1.1;2;3299;0.45468323734465;0.9848077;1.673648;0.7393344;1.779647;-0.8660251;0.9999995;-0.7082643;1.226347;
637951396281449326;1095.274;32;2;1.5;1.1;2;1200;1.25;-0.9848078;1.673648;-0.5645634;1.752968;0.9848077;1.673648;0.7393344;1.779647;
637951396292441793;1096.374;32;2;1.5;1.1;2;1099;1.36487716105551;0.8660256;1;0.727639;1.370448;-0.9848078;1.673648;-0.5645634;1.752968;
637951396305484722;1097.678;32;2;1.5;1.1;2;1304;1.15030674846626;-0.6427882;2.266044;-0.4813348;1.989643;0.8660256;1;0.727639;1.370448;
637951396330420324;1100.172;32;2;1.5;1.1;2;2494;0.601443464314354;0.3420205;0.5603075;0.3835126;1.061464;-0.6427882;2.266044;-0.4813348;1.989643;
637951396374400204;1104.57;32;2;4;0.1;1.4;2399;1.66736140058358;-0.2394138;0.8422151;-0.2349571;0.8833028;0;2.2;-0.008772766;2.179374;
637951396408497859;1107.979;32;2;4;0.1;1.4;3409;1.17336462305661;0.4499513;2.036231;0.4072856;2.050318;-0.2394138;0.8422151;-0.2349571;0.8833028;
637951396452477738;1112.377;32;2;4;0.1;1.4;4398;0.909504320145521;-0.6062176;1.15;-0.6075094;1.149003;0.4499513;2.036231;0.4072856;2.050318;
637951396484464923;1115.576;32;2;4;0.1;1.4;3198;1.25078173858662;0.6893654;1.621554;0.656261;1.615214;-0.6062176;1.15;-0.6075094;1.149003;
637951396519497842;1119.079;32;2;4;0.1;1.4;3503;1.14187838995147;-0.6893655;1.621553;-0.6789476;1.633822;0.6893654;1.621554;0.656261;1.615214;
637951396545548964;1121.684;32;2;4;0.1;1.4;2605;1.53550863723608;0.6062179;1.15;0.6000127;1.178714;-0.6893655;1.621553;-0.6789476;1.633822;
637951396595525156;1126.682;32;2;4;0.1;1.4;4998;0.800320128051221;-0.4499517;2.036231;-0.4470947;2.033885;0.6062179;1.15;0.6000127;1.178714;
637951396629556627;1130.085;32;2;4;0.1;1.4;3403;1.1754334410814;0.2394144;0.8422153;0.2436686;0.8859988;-0.4499517;2.036231;-0.4470947;2.033885;
637951396688639897;1135.994;32;2;2;0.6;1.8;4603;0.434499239626331;-0.3078177;0.6542765;-0.2452156;0.8581258;0;2.4;0.07947445;2.345053;
637951396720627086;1139.192;32;2;2;0.6;1.8;3198;0.625390869293308;0.5785087;2.18944;0.4754066;2.237627;-0.3078177;0.6542765;-0.2452156;0.8581258;
637951396750553808;1142.186;32;2;2;0.6;1.8;2994;0.668002672010688;-0.7794226;1.05;-0.5917258;1.272465;0.5785087;2.18944;0.4754066;2.237627;
637951396766557398;1143.785;32;2;2;0.6;1.8;1599;1.25078173858662;0.8863269;1.656283;0.735217;1.670687;-0.7794226;1.05;-0.5917258;1.272465;
637951396809697194;1148.099;32;2;2;0.6;1.8;4314;0.463606861381548;-0.8863271;1.656283;-0.5998579;1.621967;0.8863269;1.656283;0.735217;1.670687;
637951396862618973;1153.392;32;2;2;0.6;1.8;5292;0.377928949357521;0.779423;1.05;0.6088127;1.284051;-0.8863271;1.656283;-0.5998579;1.621967;
637951396878592555;1154.989;32;2;2;0.6;1.8;1597;1.25234815278647;-0.5785094;2.18944;-0.5453467;2.05013;0.779423;1.05;0.6088127;1.284051;
637951396896600442;1156.79;32;2;2;0.6;1.8;1801;1.11049416990561;0.3078185;0.6542768;0.3115071;0.9234819;-0.5785094;2.18944;-0.5453467;2.05013;
637951396977683516;1164.898;32;2;2.5;0.3;1.4;5198;0.480954213158907;-0.2394138;0.8422151;-0.2147153;0.9507264;0;2.2;0.007020815;2.192658;
637951397020663167;1169.196;32;2;2.5;0.3;1.4;4298;0.581665891112145;0.4499513;2.036231;0.3867908;1.931343;-0.2394138;0.8422151;-0.2147153;0.9507264;
637951397074745315;1174.604;32;2;2.5;0.3;1.4;5408;0.462278106508876;-0.6062176;1.15;-0.5339214;1.27577;0.4499513;2.036231;0.3867908;1.931343;
637951397148711929;1182.001;32;2;2.5;0.3;1.4;7397;0.337974854670812;0.6893654;1.621554;0.7397054;1.679248;-0.6062176;1.15;-0.5339214;1.27577;
637951397190691357;1186.199;32;2;2.5;0.3;1.4;4198;0.595521676989042;-0.6893655;1.621553;-0.582792;1.673604;0.6893654;1.621554;0.7397054;1.679248;
637951397256770753;1192.807;32;2;2.5;0.3;1.4;6608;0.378329297820823;0.6062179;1.15;0.6058368;1.24697;-0.6893655;1.621553;-0.582792;1.673604;
637951397275815029;1194.711;32;2;2.5;0.3;1.4;1904;1.31302521008403;-0.4499517;2.036231;-0.3693712;1.983302;0.6062179;1.15;0.6058368;1.24697;
637951397371826172;1204.313;32;2;2.5;0.3;1.4;9602;0.260362424494897;0.2394144;0.8422153;0.2409274;0.9116921;-0.4499517;2.036231;-0.3693712;1.983302;
637951398152158900;1282.344;32;3;2.5;0.3;1.4;1599;1.56347717323327;-0.2394138;0.8422151;-0.178111;0.9652027;0;2.2;0.03237789;2.186256;
637951398170142938;1284.143;32;3;2.5;0.3;1.4;1799;1.38966092273485;0.4499513;2.036231;0.3843069;2.0691;-0.2394138;0.8422151;-0.178111;0.9652027;
637951398196128775;1286.741;32;3;2.5;0.3;1.4;2599;0.961908426317814;-0.6062176;1.15;-0.5233845;1.252583;0.4499513;2.036231;0.3843069;2.0691;
637951398222114611;1289.34;32;3;2.5;0.3;1.4;2599;0.961908426317814;0.6893654;1.621554;0.6288384;1.683412;-0.6062176;1.15;-0.5233845;1.252583;
637951398239118431;1291.04;32;3;2.5;0.3;1.4;1700;1.47058823529412;-0.6893655;1.621553;-0.5924763;1.671465;0.6893654;1.621554;0.6288384;1.683412;
637951398259162932;1293.044;32;3;2.5;0.3;1.4;2004;1.24750499001996;0.6062179;1.15;0.5575552;1.225104;-0.6893655;1.621553;-0.5924763;1.671465;
637951398323165082;1299.447;32;3;2.5;0.3;1.4;6402;0.390502967822556;-0.4499517;2.036231;-0.3853418;2.046497;0.6062179;1.15;0.5575552;1.225104;
637951398353206619;1302.451;32;3;2.5;0.3;1.4;3004;0.832223701731025;0.2394144;0.8422153;0.1903069;0.9114696;-0.4499517;2.036231;-0.3853418;2.046497;
637951398388307509;1305.96;32;3;3;0.2;1.4;2005;1.49625935162095;-0.2394138;0.8422151;-0.2438152;0.9205627;0;2.2;-0.05206367;2.168954;
637951398416243789;1308.754;32;3;3;0.2;1.4;2793;1.07411385606874;0.4499513;2.036231;0.4083201;1.996892;-0.2394138;0.8422151;-0.2438152;0.9205627;
637951398454222315;1312.552;32;3;3;0.2;1.4;3798;0.789889415481833;-0.6062176;1.15;-0.5539276;1.158429;0.4499513;2.036231;0.4083201;1.996892;
637951398491200618;1316.25;32;3;3;0.2;1.4;3698;0.811249323958897;0.6893654;1.621554;0.6694036;1.636806;-0.6062176;1.15;-0.5539276;1.158429;
637951398509194662;1318.049;32;3;3;0.2;1.4;1799;1.66759310728182;-0.6893655;1.621553;-0.6173926;1.624499;0.6893654;1.621554;0.6694036;1.636806;
637951398534300300;1320.56;32;3;3;0.2;1.4;2510;1.19521912350598;0.6062179;1.15;0.6021086;1.217484;-0.6893655;1.621553;-0.6173926;1.624499;
637951398577279953;1324.857;32;3;3;0.2;1.4;4298;0.697999069334574;-0.4499517;2.036231;-0.4074014;2.073434;0.6062179;1.15;0.6021086;1.217484;
637951398614258262;1328.555;32;3;3;0.2;1.4;3698;0.811249323958897;0.2394144;0.8422153;0.2264302;0.9298404;-0.4499517;2.036231;-0.4074014;2.073434;
637951398641244321;1331.254;32;3;1.5;1.1;2;1199;1.25104253544621;-0.3420197;0.5603072;-0.1827665;1.046963;0;2.5;-0.04208567;2.275679;
637951398665229707;1333.653;32;3;1.5;1.1;2;2399;0.625260525218841;0.6427875;2.266045;0.4894035;2.116537;-0.3420197;0.5603072;-0.1827665;1.046963;
637951398694328525;1336.563;32;3;1.5;1.1;2;2910;0.515463917525773;-0.8660251;0.9999995;-0.5941026;1.335228;0.6427875;2.266045;0.4894035;2.116537;
637951398706331221;1337.762;32;3;1.5;1.1;2;1200;1.25;0.9848077;1.673648;0.6430832;1.699135;-0.8660251;0.9999995;-0.5941026;1.335228;
637951398729316384;1340.061;32;3;1.5;1.1;2;2299;0.652457590256633;-0.9848078;1.673648;-0.4525624;1.764969;0.9848077;1.673648;0.6430832;1.699135;
637951398740311508;1341.161;32;3;1.5;1.1;2;1100;1.36363636363636;0.8660256;1;0.6127028;1.347713;-0.9848078;1.673648;-0.4525624;1.764969;
637951398751307663;1342.26;32;3;1.5;1.1;2;1099;1.36487716105551;-0.6427882;2.266044;-0.4146971;2.124833;0.8660256;1;0.6127028;1.347713;
637951398773292593;1344.459;32;3;1.5;1.1;2;2199;0.682128240109141;0.3420205;0.5603075;0.3094656;1.012071;-0.6427882;2.266044;-0.4146971;2.124833;
637951398818392726;1348.969;32;3;2;0.6;1.8;2405;0.831600831600832;-0.3078177;0.6542765;-0.273558;0.8866172;0;2.4;-0.03254184;2.371671;
637951398831385650;1350.268;32;3;2;0.6;1.8;1300;1.53846153846154;0.5785087;2.18944;0.4835987;2.098829;-0.3078177;0.6542765;-0.273558;0.8866172;
637951398874365302;1354.566;32;3;2;0.6;1.8;4298;0.465332712889716;-0.7794226;1.05;-0.673543;1.179987;0.5785087;2.18944;0.4835987;2.098829;
637951398899350912;1357.065;32;3;2;0.6;1.8;2498;0.800640512409928;0.8863269;1.656283;0.7409199;1.71241;-0.7794226;1.05;-0.673543;1.179987;
637951398912343832;1358.364;32;3;2;0.6;1.8;1299;1.53964588144727;-0.8863271;1.656283;-0.7163894;1.679078;0.8863269;1.656283;0.7409199;1.71241;
637951398933338553;1360.463;32;3;2;0.6;1.8;2099;0.952834683182468;0.779423;1.05;0.6943749;1.171433;-0.8863271;1.656283;-0.7163894;1.679078;
637951398950322361;1362.162;32;3;2;0.6;1.8;1699;1.17716303708064;-0.5785094;2.18944;-0.3783805;2.089704;0.779423;1.05;0.6943749;1.171433;
637951398964425533;1363.573;32;3;2;0.6;1.8;1411;1.41743444365698;0.3078185;0.6542768;0.3038295;0.7694161;-0.5785094;2.18944;-0.3783805;2.089704;
637951399032395845;1370.37;32;3;4;0.1;1.4;2299;1.73988690735102;-0.2394138;0.8422151;-0.2309656;0.8909107;0;2.2;-0.04046879;2.187076;
637951399062383378;1373.369;32;3;4;0.1;1.4;2999;1.33377792597533;0.4499513;2.036231;0.4195186;2.028629;-0.2394138;0.8422151;-0.2309656;0.8909107;
637951399099423546;1377.072;32;3;4;0.1;1.4;3704;1.07991360691145;-0.6062176;1.15;-0.5891641;1.190316;0.4499513;2.036231;0.4195186;2.028629;
637951399123469020;1379.477;32;3;4;0.1;1.4;2404;1.66389351081531;0.6893654;1.621554;0.6595237;1.64637;-0.6062176;1.15;-0.5891641;1.190316;
637951399162447780;1383.375;32;3;4;0.1;1.4;3898;1.02616726526424;-0.6893655;1.621553;-0.6722221;1.621892;0.6893654;1.621554;0.6595237;1.64637;
637951399208428103;1387.972;32;3;4;0.1;1.4;4598;0.869943453675511;0.6062179;1.15;0.6060195;1.171626;-0.6893655;1.621553;-0.6722221;1.621892;
637951399251517786;1392.282;32;3;4;0.1;1.4;4309;0.928289626363425;-0.4499517;2.036231;-0.4323559;2.01332;0.6062179;1.15;0.6060195;1.171626;
637951399290506539;1396.18;32;3;4;0.1;1.4;3898;1.02616726526424;0.2394144;0.8422153;0.272173;0.8758693;-0.4499517;2.036231;-0.4323559;2.01332;
637951399339587566;1401.089;32;3;3.5;0.2;2;3310;1.05740181268882;-0.3420197;0.5603072;-0.3198026;0.6429765;0;2.5;-0.04129282;2.448432;
637951399353590703;1402.488;32;3;3.5;0.2;2;1399;2.50178699070765;0.6427875;2.266045;0.5528202;2.249601;-0.3420197;0.5603072;-0.3198026;0.6429765;
637951399388588568;1405.988;32;3;3.5;0.2;2;3499;1.0002857959417;-0.8660251;0.9999995;-0.8297246;1.022223;0.6427875;2.266045;0.5528202;2.249601;
637951399416555361;1408.785;32;3;3.5;0.2;2;2798;1.25089349535382;0.9848077;1.673648;0.9007838;1.682928;-0.8660251;0.9999995;-0.8297246;1.022223;
637951399499638117;1417.093;32;3;3.5;0.2;2;8308;0.421280693307655;-0.9848078;1.673648;-0.9211662;1.695365;0.9848077;1.673648;0.9007838;1.682928;
637951399520622833;1419.192;32;3;3.5;0.2;2;2099;1.66746069556932;0.8660256;1;0.8996016;1.000822;-0.9848078;1.673648;-0.9211662;1.695365;
637951399545608446;1421.69;32;3;3.5;0.2;2;2499;1.40056022408964;-0.6427882;2.266044;-0.5814657;2.217338;0.8660256;1;0.8996016;1.000822;
637951399584587198;1425.589;32;3;3.5;0.2;2;3898;0.897896357106208;0.3420205;0.5603075;0.3447892;0.6327615;-0.6427882;2.266044;-0.5814657;2.217338;
637951399639679568;1431.097;32;3;4.5;0.1;2.2;3773;1.19268486615425;-0.3762217;0.4663379;-0.3442475;0.5035964;0;2.6;-0.04713413;2.594361;
637951399702643713;1437.395;32;3;4.5;0.1;2.2;6297;0.714626012386851;0.7070663;2.342649;0.6776338;2.322488;-0.3762217;0.4663379;-0.3442475;0.5035964;
637951399724638655;1439.593;32;3;4.5;0.1;2.2;2199;2.04638472032742;-0.9526277;0.9499994;-0.9331073;0.9853365;0.7070663;2.342649;0.6776338;2.322488;
637951399762727208;1443.402;32;3;4.5;0.1;2.2;3809;1.18141244421108;1.083289;1.691013;1.053512;1.722776;-0.9526277;0.9499994;-0.9331073;0.9853365;
637951399793766917;1446.506;32;3;4.5;0.1;2.2;3104;1.44974226804124;-1.083289;1.691012;-1.069023;1.697813;1.083289;1.691013;1.053512;1.722776;
637951399834693466;1450.599;32;3;4.5;0.1;2.2;4093;1.09943806498901;0.9526281;0.9500003;0.937927;0.9564098;-1.083289;1.691012;-1.069023;1.697813;
637951399878673342;1454.997;32;3;4.5;0.1;2.2;4398;1.02319236016371;-0.7070671;2.342648;-0.7005889;2.323569;0.9526281;0.9500003;0.937927;0.9564098;
637951399915771676;1458.707;32;3;4.5;0.1;2.2;3709;1.21326503100566;0.3762226;0.4663382;0.3704981;0.5026037;-0.7070671;2.342648;-0.7005889;2.323569;
637951401454408275;1612.57;32;4;2;0.6;1.8;1210;1.65289256198347;-0.3078177;0.6542765;-0.2010744;0.7942696;0;2.4;0.03064231;2.294924;
637951401464410523;1613.569;32;4;2;0.6;1.8;1000;2;0.5785087;2.18944;0.5404186;2.175155;-0.3078177;0.6542765;-0.2010744;0.7942696;
637951401492396807;1616.368;32;4;2;0.6;1.8;2799;0.714540907466952;-0.7794226;1.05;-0.609046;1.218974;0.5785087;2.18944;0.5404186;2.175155;
637951401511381075;1618.267;32;4;2;0.6;1.8;1899;1.05318588730911;0.8863269;1.656283;0.6629745;1.688631;-0.7794226;1.05;-0.609046;1.218974;
637951401524373995;1619.566;32;4;2;0.6;1.8;1300;1.53846153846154;-0.8863271;1.656283;-0.6601255;1.646133;0.8863269;1.656283;0.6629745;1.688631;
637951401536366683;1620.765;32;4;2;0.6;1.8;1199;1.66805671392827;0.779423;1.05;0.6279848;1.221001;-0.8863271;1.656283;-0.6601255;1.646133;
637951401548369381;1621.965;32;4;2;0.6;1.8;1200;1.66666666666667;-0.5785094;2.18944;-0.4888561;2.08248;0.779423;1.05;0.6279848;1.221001;
637951401559361850;1623.065;32;4;2;0.6;1.8;1100;1.81818181818182;0.3078185;0.6542768;0.2917543;0.8944994;-0.5785094;2.18944;-0.4888561;2.08248;
637951401621446710;1629.273;32;4;2.5;0.3;1.4;3293;0.759186152444579;-0.2394138;0.8422151;-0.1898724;0.9535239;0;2.2;0.01617695;2.170668;
637951401644541932;1631.583;32;4;2.5;0.3;1.4;2310;1.08225108225108;0.4499513;2.036231;0.356389;1.989501;-0.2394138;0.8422151;-0.1898724;0.9535239;
637951401692506414;1636.38;32;4;2.5;0.3;1.4;4797;0.521159057744424;-0.6062176;1.15;-0.5931255;1.18767;0.4499513;2.036231;0.356389;1.989501;
637951401706499557;1637.78;32;4;2.5;0.3;1.4;1399;1.78699070764832;0.6893654;1.621554;0.6232061;1.596215;-0.6062176;1.15;-0.5931255;1.18767;
637951401744488091;1641.578;32;4;2.5;0.3;1.4;3798;0.658241179568194;-0.6893655;1.621553;-0.6542647;1.627979;0.6893654;1.621554;0.6232061;1.596215;
637951401768473484;1643.977;32;4;2.5;0.3;1.4;2399;1.04210087536474;0.6062179;1.15;0.6444519;1.216552;-0.6893655;1.621553;-0.6542647;1.627979;
637951401791628677;1646.292;32;4;2.5;0.3;1.4;2315;1.07991360691145;-0.4499517;2.036231;-0.3960329;2.014008;0.6062179;1.15;0.6444519;1.216552;
637951401819564950;1649.086;32;4;2.5;0.3;1.4;2794;0.894774516821761;0.2394144;0.8422153;0.2376193;0.9431223;-0.4499517;2.036231;-0.3960329;2.014008;
637951401839659458;1651.096;32;4;1.5;1.1;2;999;1.5015015015015;-0.3420197;0.5603072;-0.1428987;1.012539;0;2.5;0.03931629;2.151518;
637951401871646649;1654.295;32;4;1.5;1.1;2;3199;0.468896530165677;0.6427875;2.266045;0.3890723;2.188069;-0.3420197;0.5603072;-0.1428987;1.012539;
637951401910745430;1658.204;32;4;1.5;1.1;2;3909;0.383729854182655;-0.8660251;0.9999995;-0.5679954;1.306358;0.6427875;2.266045;0.3890723;2.188069;
637951401922738123;1659.404;32;4;1.5;1.1;2;1199;1.25104253544621;0.9848077;1.673648;0.6879925;1.628193;-0.8660251;0.9999995;-0.5679954;1.306358;
637951401932730368;1660.403;32;4;1.5;1.1;2;1000;1.5;-0.9848078;1.673648;-0.5763188;1.584823;0.9848077;1.673648;0.6879925;1.628193;
637951401942727658;1661.403;32;4;1.5;1.1;2;999;1.5015015015015;0.8660256;1;0.6804542;1.264157;-0.9848078;1.673648;-0.5763188;1.584823;
637951401952720410;1662.402;32;4;1.5;1.1;2;1000;1.5;-0.6427882;2.266044;-0.3974791;2.086844;0.8660256;1;0.6804542;1.264157;
637951401963721304;1663.502;32;4;1.5;1.1;2;1100;1.36363636363636;0.3420205;0.5603075;0.3926409;1.03439;-0.6427882;2.266044;-0.3974791;2.086844;
637951402014698256;1668.599;32;4;3;0.2;1.4;1694;1.77095631641086;-0.2394138;0.8422151;-0.1910392;0.9214282;0;2.2;-0.02235769;2.194295;
637951402029694041;1670.099;32;4;3;0.2;1.4;1500;2;0.4499513;2.036231;0.3786481;1.995023;-0.2394138;0.8422151;-0.1910392;0.9214282;
637951402054786912;1672.609;32;4;3;0.2;1.4;2510;1.19521912350598;-0.6062176;1.15;-0.5583271;1.233364;0.4499513;2.036231;0.3786481;1.995023;
637951402066789608;1673.808;32;4;3;0.2;1.4;1200;2.5;0.6893654;1.621554;0.6383086;1.63553;-0.6062176;1.15;-0.5583271;1.233364;
637951402079772524;1675.107;32;4;3;0.2;1.4;1299;2.3094688221709;-0.6893655;1.621553;-0.5979422;1.62297;0.6893654;1.621554;0.6383086;1.63553;
637951402116760839;1678.806;32;4;3;0.2;1.4;3698;0.811249323958897;0.6062179;1.15;0.5691196;1.219626;-0.6893655;1.621553;-0.5979422;1.62297;
637951402129753753;1680.105;32;4;3;0.2;1.4;1300;2.30769230769231;-0.4499517;2.036231;-0.4133268;2.013838;0.6062179;1.15;0.5691196;1.219626;
637951402155739589;1682.704;32;4;3;0.2;1.4;2599;1.15429011158138;0.2394144;0.8422153;0.2389298;0.9144107;-0.4499517;2.036231;-0.4133268;2.013838;
637951402203830392;1687.513;32;4;3.5;0.2;2;1910;1.83246073298429;-0.3420197;0.5603072;-0.3187964;0.6448572;0;2.5;0.01327216;2.464477;
637951402236817799;1690.811;32;4;3.5;0.2;2;3299;1.06092755380418;0.6427875;2.266045;0.5914056;2.290291;-0.3420197;0.5603072;-0.3187964;0.6448572;
637951402255802061;1692.71;32;4;3.5;0.2;2;1899;1.84307530279094;-0.8660251;0.9999995;-0.8797761;0.9852111;0.6427875;2.266045;0.5914056;2.290291;
637951402277797002;1694.909;32;4;3.5;0.2;2;2199;1.59163256025466;0.9848077;1.673648;0.9501914;1.702027;-0.8660251;0.9999995;-0.8797761;0.9852111;
637951402290789925;1696.209;32;4;3.5;0.2;2;1300;2.69230769230769;-0.9848078;1.673648;-0.9538622;1.626446;0.9848077;1.673648;0.9501914;1.702027;
637951402314785307;1698.608;32;4;3.5;0.2;2;2399;1.45894122551063;0.8660256;1;0.8944436;1.030757;-0.9848078;1.673648;-0.9538622;1.626446;
637951402336770241;1700.807;32;4;3.5;0.2;2;2199;1.59163256025466;-0.6427882;2.266044;-0.5986627;2.223479;0.8660256;1;0.8944436;1.030757;
637951402356868472;1702.817;32;4;3.5;0.2;2;2010;1.74129353233831;0.3420205;0.5603075;0.2876663;0.6079336;-0.6427882;2.266044;-0.5986627;2.223479;
637951402412842197;1708.414;32;4;4;0.1;1.4;4193;0.953970903887431;-0.2394138;0.8422151;-0.2443816;0.842236;0;2.2;-0.03171017;2.185517;
637951402437891839;1710.919;32;4;4;0.1;1.4;2504;1.59744408945687;0.4499513;2.036231;0.4229721;2.022789;-0.2394138;0.8422151;-0.2443816;0.842236;
637951402466931685;1713.823;32;4;4;0.1;1.4;2905;1.37693631669535;-0.6062176;1.15;-0.5977957;1.164228;0.4499513;2.036231;0.4229721;2.022789;
637951402506911834;1717.821;32;4;4;0.1;1.4;3998;1.00050025012506;0.6893654;1.621554;0.6502497;1.632534;-0.6062176;1.15;-0.5977957;1.164228;
637951402539899238;1721.12;32;4;4;0.1;1.4;3299;1.21248863291907;-0.6893655;1.621553;-0.68082;1.611453;0.6893654;1.621554;0.6502497;1.632534;
637951402580048259;1725.134;32;4;4;0.1;1.4;4014;0.996512207274539;0.6062179;1.15;0.5756373;1.151703;-0.6893655;1.621553;-0.68082;1.611453;
637951402601983188;1727.328;32;4;4;0.1;1.4;2193;1.82398540811674;-0.4499517;2.036231;-0.4466471;2.025472;0.6062179;1.15;0.5756373;1.151703;
637951402623027914;1729.432;32;4;4;0.1;1.4;2104;1.90114068441065;0.2394144;0.8422153;0.2344389;0.8545307;-0.4499517;2.036231;-0.4466471;2.025472;
637951402654254920;1732.562;32;4;4.5;0.1;2.2;1636;2.75061124694377;-0.3762217;0.4663379;-0.3699255;0.5151677;0;2.6;-0.03039847;2.594445;
637951402695944290;1736.724;32;4;4.5;0.1;2.2;4161;1.08147080028839;0.7070663;2.342649;0.6695094;2.344439;-0.3762217;0.4663379;-0.3699255;0.5151677;
637951402737313583;1740.869;32;4;4.5;0.1;2.2;4145;1.08564535585042;-0.9526277;0.9499994;-0.931339;0.9952413;0.7070663;2.342649;0.6695094;2.344439;
637951402754017330;1742.532;32;4;4.5;0.1;2.2;1663;2.70595309681299;1.083289;1.691013;1.046233;1.665767;-0.9526277;0.9499994;-0.931339;0.9952413;
637951402780005405;1745.13;32;4;4.5;0.1;2.2;2599;1.73143516737207;-1.083289;1.691012;-1.046952;1.687559;1.083289;1.691013;1.046233;1.665767;
637951402835040458;1750.634;32;4;4.5;0.1;2.2;5503;0.817735780483373;0.9526281;0.9500003;0.9542521;0.9998815;-1.083289;1.691012;-1.046952;1.687559;
637951402855091481;1752.639;32;4;4.5;0.1;2.2;2005;2.24438902743142;-0.7070671;2.342648;-0.659927;2.337426;0.9526281;0.9500003;0.9542521;0.9998815;
637951402885078214;1755.637;32;4;4.5;0.1;2.2;2999;1.50050016672224;0.3762226;0.4663382;0.3532459;0.5040023;-0.7070671;2.342648;-0.659927;2.337426;
637951403642522996;1831.38;32;5;3.5;0.2;2;2810;1.24555160142349;-0.3420197;0.5603072;-0.3290729;0.5772772;0;2.5;0.03032349;2.45269;
637951403658513402;1832.979;32;5;3.5;0.2;2;1599;2.18886804252658;0.6427875;2.266045;0.5917746;2.292627;-0.3420197;0.5603072;-0.3290729;0.5772772;
637951403693494748;1836.478;32;5;3.5;0.2;2;3498;1.00057175528874;-0.8660251;0.9999995;-0.8473217;1.033115;0.6427875;2.266045;0.5917746;2.292627;
637951403710488106;1838.177;32;5;3.5;0.2;2;1699;2.06003531489111;0.9848077;1.673648;0.9299649;1.657874;-0.8660251;0.9999995;-0.8473217;1.033115;
637951403735583744;1840.687;32;5;3.5;0.2;2;2510;1.39442231075697;-0.9848078;1.673648;-0.9267979;1.653816;0.9848077;1.673648;0.9299649;1.657874;
637951403749576886;1842.086;32;5;3.5;0.2;2;1400;2.5;0.8660256;1;0.801228;1.049413;-0.9848078;1.673648;-0.9267979;1.653816;
637951403764570254;1843.586;32;5;3.5;0.2;2;1499;2.33488992661775;-0.6427882;2.266044;-0.5955413;2.23582;0.8660256;1;0.801228;1.049413;
637951403778573399;1844.985;32;5;3.5;0.2;2;1400;2.5;0.3420205;0.5603075;0.3458335;0.6571857;-0.6427882;2.266044;-0.5955413;2.23582;
637951403809550357;1848.084;32;5;2;0.6;1.8;2099;0.952834683182468;-0.3078177;0.6542765;-0.2587306;0.919294;0;2.4;-0.05492824;2.438602;
637951403841537542;1851.282;32;5;2;0.6;1.8;3199;0.625195373554236;0.5785087;2.18944;0.4854876;2.139564;-0.3078177;0.6542765;-0.2587306;0.919294;
637951403858531354;1852.982;32;5;2;0.6;1.8;1699;1.17716303708064;-0.7794226;1.05;-0.6187514;1.154287;0.5785087;2.18944;0.4854876;2.139564;
637951403869643850;1854.092;32;5;2;0.6;1.8;1111;1.8001800180018;0.8863269;1.656283;0.6808274;1.611079;-0.7794226;1.05;-0.6187514;1.154287;
637951403880616320;1855.191;32;5;2;0.6;1.8;1099;1.81983621474067;-0.8863271;1.656283;-0.6738809;1.641627;0.8863269;1.656283;0.6808274;1.611079;
637951403891609308;1856.291;32;5;2;0.6;1.8;1099;1.81983621474067;0.779423;1.05;0.6906809;1.20576;-0.8863271;1.656283;-0.6738809;1.641627;
637951403921594022;1859.29;32;5;2;0.6;1.8;2999;0.666888962987663;-0.5785094;2.18944;-0.4423701;2.207306;0.779423;1.05;0.6906809;1.20576;
637951403951585844;1862.288;32;5;2;0.6;1.8;2998;0.66711140760507;0.3078185;0.6542768;0.2706588;0.9250352;-0.5785094;2.18944;-0.4423701;2.207306;
637951403979682183;1865.098;32;5;3;0.2;1.4;1500;2;-0.2394138;0.8422151;-0.2515102;0.8872204;0;2.2;-0.01002461;2.138464;
637951403993665322;1866.495;32;5;3;0.2;1.4;1397;2.14745884037223;0.4499513;2.036231;0.3881228;1.96228;-0.2394138;0.8422151;-0.2515102;0.8872204;
637951404057759720;1872.906;32;5;3;0.2;1.4;6410;0.46801872074883;-0.6062176;1.15;-0.579203;1.158084;0.4499513;2.036231;0.3881228;1.96228;
637951404074753533;1874.605;32;5;3;0.2;1.4;1699;1.76574455562095;0.6893654;1.621554;0.6077693;1.619417;-0.6062176;1.15;-0.579203;1.158084;
637951404118723404;1879.002;32;5;3;0.2;1.4;4398;0.682128240109141;-0.6893655;1.621553;-0.6539344;1.624791;0.6893654;1.621554;0.6077693;1.619417;
637951404136717448;1880.802;32;5;3;0.2;1.4;1799;1.66759310728182;0.6062179;1.15;0.6004727;1.245724;-0.6893655;1.621553;-0.6539344;1.624791;
637951404166704181;1883.801;32;5;3;0.2;1.4;2999;1.00033344448149;-0.4499517;2.036231;-0.4018233;2.044911;0.6062179;1.15;0.6004727;1.245724;
637951404190699572;1886.199;32;5;3;0.2;1.4;2399;1.25052105043768;0.2394144;0.8422153;0.240185;0.9393958;-0.4499517;2.036231;-0.4018233;2.044911;
637951404215795203;1888.709;32;5;2.5;0.3;1.4;1000;2.5;-0.2394138;0.8422151;-0.1965409;0.9082435;0;2.2;0.02640557;2.120632;
637951404246782162;1891.808;32;5;2.5;0.3;1.4;3099;0.806711842529848;0.4499513;2.036231;0.4152143;2.035556;-0.2394138;0.8422151;-0.1965409;0.9082435;
637951404297762115;1896.906;32;5;2.5;0.3;1.4;5098;0.490388387602982;-0.6062176;1.15;-0.5347466;1.196084;0.4499513;2.036231;0.4152143;2.035556;
637951404311865281;1898.316;32;5;2.5;0.3;1.4;1410;1.77304964539007;0.6893654;1.621554;0.6315166;1.629082;-0.6062176;1.15;-0.5347466;1.196084;
637951404323857363;1899.515;32;5;2.5;0.3;1.4;1199;2.08507089241034;-0.6893655;1.621553;-0.6049039;1.63485;0.6893654;1.621554;0.6315166;1.629082;
637951404335857322;1900.715;32;5;2.5;0.3;1.4;1200;2.08333333333333;0.6062179;1.15;0.5372606;1.222674;-0.6893655;1.621553;-0.6049039;1.63485;
637951404350842039;1902.214;32;5;2.5;0.3;1.4;1499;1.66777851901268;-0.4499517;2.036231;-0.3233116;2.001333;0.6062179;1.15;0.5372606;1.222674;
637951404362837738;1903.414;32;5;2.5;0.3;1.4;1199;2.08507089241034;0.2394144;0.8422153;0.229772;0.9314598;-0.4499517;2.036231;-0.3233116;2.001333;
637951404398825821;1907.012;32;5;1.5;1.1;2;2599;0.577145055790689;-0.3420197;0.5603072;-0.2512344;0.98928;0;2.5;0.09280163;2.318226;
637951404408818068;1908.011;32;5;1.5;1.1;2;999;1.5015015015015;0.6427875;2.266045;0.4369922;1.998332;-0.3420197;0.5603072;-0.2512344;0.98928;
637951404422811206;1909.411;32;5;1.5;1.1;2;1399;1.07219442458899;-0.8660251;0.9999995;-0.6451922;1.364894;0.6427875;2.266045;0.4369922;1.998332;
637951404433803675;1910.51;32;5;1.5;1.1;2;1100;1.36363636363636;0.9848077;1.673648;0.8069727;1.585009;-0.8660251;0.9999995;-0.6451922;1.364894;
637951404443795920;1911.51;32;5;1.5;1.1;2;999;1.5015015015015;-0.9848078;1.673648;-0.6201329;1.780375;0.9848077;1.673648;0.8069727;1.585009;
637951404469901783;1914.12;32;5;1.5;1.1;2;2610;0.574712643678161;0.8660256;1;0.5789322;1.35913;-0.9848078;1.673648;-0.6201329;1.780375;
637951404482894702;1915.419;32;5;1.5;1.1;2;1300;1.15384615384615;-0.6427882;2.266044;-0.2898115;2.257727;0.8660256;1;0.5789322;1.35913;
637951404509880762;1918.118;32;5;1.5;1.1;2;2699;0.555761393108559;0.3420205;0.5603075;0.3313663;0.9324027;-0.6427882;2.266044;-0.2898115;2.257727;
637951404602841645;1927.414;32;5;4;0.1;1.4;6797;0.588494924231278;-0.2394138;0.8422151;-0.2219372;0.8502938;0;2.2;0.01460558;2.230619;
637951404643935431;1931.523;32;5;4;0.1;1.4;4109;0.973472864443904;0.4499513;2.036231;0.4365377;2.06946;-0.2394138;0.8422151;-0.2219372;0.8502938;
637951404690912437;1936.221;32;5;4;0.1;1.4;4698;0.851426138782461;-0.6062176;1.15;-0.5957391;1.16362;0.4499513;2.036231;0.4365377;2.06946;
637951404745994807;1941.729;32;5;4;0.1;1.4;5508;0.726216412490922;0.6893654;1.621554;0.6814646;1.640228;-0.6062176;1.15;-0.5957391;1.16362;
637951404764989074;1943.628;32;5;4;0.1;1.4;1899;2.10637177461822;-0.6893655;1.621553;-0.6658885;1.650141;0.6893654;1.621554;0.6814646;1.640228;
637951404781972885;1945.328;32;5;4;0.1;1.4;1699;2.35432607416127;0.6062179;1.15;0.5928983;1.182472;-0.6893655;1.621553;-0.6658885;1.650141;
637951404812969849;1948.426;32;5;4;0.1;1.4;3099;1.29073894804776;-0.4499517;2.036231;-0.4486537;2.059165;0.6062179;1.15;0.5928983;1.182472;
637951404855059303;1952.635;32;5;4;0.1;1.4;4209;0.950344499881207;0.2394144;0.8422153;0.2445864;0.878664;-0.4499517;2.036231;-0.4486537;2.059165;
637951404904030294;1957.533;32;5;4.5;0.1;2.2;2462;1.82778229082047;-0.3762217;0.4663379;-0.3470424;0.4782538;0;2.6;-0.02680898;2.558238;
637951404939028161;1961.033;32;5;4.5;0.1;2.2;3500;1.28571428571429;0.7070663;2.342649;0.7310351;2.322443;-0.3762217;0.4663379;-0.3470424;0.4782538;
637951404967004446;1963.83;32;5;4.5;0.1;2.2;2798;1.60829163688349;-0.9526277;0.9499994;-0.9154111;0.9607097;0.7070663;2.342649;0.7310351;2.322443;
637951404984993237;1965.63;32;5;4.5;0.1;2.2;1799;2.50138966092273;1.083289;1.691013;1.0489;1.670765;-0.9526277;0.9499994;-0.9154111;0.9607097;
637951405120156901;1979.146;32;5;4.5;0.1;2.2;13516;0.332938739271974;-1.083289;1.691012;-1.062433;1.701246;1.083289;1.691013;1.0489;1.670765;
637951405141146616;1981.245;32;5;4.5;0.1;2.2;2099;2.14387803716055;0.9526281;0.9500003;0.9580958;0.999659;-1.083289;1.691012;-1.062433;1.701246;
637951405176246175;1984.754;32;5;4.5;0.1;2.2;3510;1.28205128205128;-0.7070671;2.342648;-0.7198718;2.328252;0.9526281;0.9500003;0.9580958;0.999659;
637951405244216547;1991.551;32;5;4.5;0.1;2.2;6797;0.662056789760188;0.3762226;0.4663382;0.4160644;0.4928093;-0.7070671;2.342648;-0.7198718;2.328252;
637951405878600682;2054.989;32;6;1.5;1.1;2;1199;1.25104253544621;-0.3420197;0.5603072;-0.1161296;0.9914579;0;2.5;0.1151246;2.225809;
637951405890703390;2056.199;32;6;1.5;1.1;2;1210;1.2396694214876;0.6427875;2.266045;0.4787424;2.081469;-0.3420197;0.5603072;-0.1161296;0.9914579;
637951405903706310;2057.499;32;6;1.5;1.1;2;1300;1.15384615384615;-0.8660251;0.9999995;-0.6493946;1.298508;0.6427875;2.266045;0.4787424;2.081469;
637951405915699001;2058.698;32;6;1.5;1.1;2;1199;1.25104253544621;0.9848077;1.673648;0.7836018;1.673647;-0.8660251;0.9999995;-0.6493946;1.298508;
637951405926691475;2059.797;32;6;1.5;1.1;2;1099;1.36487716105551;-0.9848078;1.673648;-0.7475466;1.757755;0.9848077;1.673648;0.7836018;1.673647;
637951405937683947;2060.897;32;6;1.5;1.1;2;1099;1.36487716105551;0.8660256;1;0.681452;1.206026;-0.9848078;1.673648;-0.7475466;1.757755;
637951405948675224;2061.996;32;6;1.5;1.1;2;1099;1.36487716105551;-0.6427882;2.266044;-0.5295151;2.160167;0.8660256;1;0.681452;1.206026;
637951405961676891;2063.296;32;6;1.5;1.1;2;1300;1.15384615384615;0.3420205;0.5603075;0.4524322;0.9348629;-0.6427882;2.266044;-0.5295151;2.160167;
637951406028762634;2070.004;32;6;4;0.1;1.4;3798;1.05318588730911;-0.2394138;0.8422151;-0.2446729;0.8782035;0;2.2;-0.007090818;2.206463;
637951406063850515;2073.513;32;6;4;0.1;1.4;3509;1.13992590481619;0.4499513;2.036231;0.4436544;2.051715;-0.2394138;0.8422151;-0.2446729;0.8782035;
637951406096887937;2076.817;32;6;4;0.1;1.4;3304;1.21065375302663;-0.6062176;1.15;-0.5881153;1.19661;0.4499513;2.036231;0.4436544;2.051715;
637951406118822860;2079.011;32;6;4;0.1;1.4;2194;1.82315405651778;0.6893654;1.621554;0.6549751;1.60389;-0.6062176;1.15;-0.5881153;1.19661;
637951406150810043;2082.209;32;6;4;0.1;1.4;3198;1.25078173858662;-0.6893655;1.621553;-0.6737114;1.630487;0.6893654;1.621554;0.6549751;1.60389;
637951406181907023;2085.319;32;6;4;0.1;1.4;3110;1.28617363344051;0.6062179;1.15;0.5597734;1.150964;-0.6893655;1.621553;-0.6737114;1.630487;
637951406198890853;2087.018;32;6;4;0.1;1.4;1699;2.35432607416127;-0.4499517;2.036231;-0.4472898;2.040581;0.6062179;1.15;0.5597734;1.150964;
637951406234888932;2090.617;32;6;4;0.1;1.4;3599;1.11141983884412;0.2394144;0.8422153;0.2754839;0.8755755;-0.4499517;2.036231;-0.4472898;2.040581;
637951406287966655;2095.925;32;6;2;0.6;1.8;3909;0.511639805576874;-0.3078177;0.6542765;-0.2366118;0.8393079;0;2.4;-0.05429578;2.308167;
637951406301959802;2097.325;32;6;2;0.6;1.8;1399;1.42959256611866;0.5785087;2.18944;0.3732887;2.031035;-0.3078177;0.6542765;-0.2366118;0.8393079;
637951406317953417;2098.924;32;6;2;0.6;1.8;1599;1.25078173858662;-0.7794226;1.05;-0.5720975;1.145675;0.5785087;2.18944;0.3732887;2.031035;
637951406331946967;2100.323;32;6;2;0.6;1.8;1399;1.42959256611866;0.8863269;1.656283;0.731253;1.558652;-0.7794226;1.05;-0.5720975;1.145675;
637951406345060021;2101.634;32;6;2;0.6;1.8;1311;1.5255530129672;-0.8863271;1.656283;-0.7964249;1.636777;0.8863269;1.656283;0.731253;1.558652;
637951406363050170;2103.433;32;6;2;0.6;1.8;1799;1.11172873818788;0.779423;1.05;0.6836038;1.258532;-0.8863271;1.656283;-0.7964249;1.636777;
637951406374040145;2104.532;32;6;2;0.6;1.8;1099;1.81983621474067;-0.5785094;2.18944;-0.4568772;2.16013;0.779423;1.05;0.6836038;1.258532;
637951406397030022;2106.831;32;6;2;0.6;1.8;2299;0.869943453675511;0.3078185;0.6542768;0.3007729;0.8856937;-0.5785094;2.18944;-0.4568772;2.16013;
637951406422130181;2109.341;32;6;2.5;0.3;1.4;1299;1.92455735180908;-0.2394138;0.8422151;-0.167982;0.8792495;0;2.2;0.04863707;2.233294;
637951406435119894;2110.641;32;6;2.5;0.3;1.4;1300;1.92307692307692;0.4499513;2.036231;0.3565163;2.030588;-0.2394138;0.8422151;-0.167982;0.8792495;
637951406461114122;2113.24;32;6;2.5;0.3;1.4;2599;0.961908426317814;-0.6062176;1.15;-0.5265564;1.221629;0.4499513;2.036231;0.3565163;2.030588;
637951406472106592;2114.339;32;6;2.5;0.3;1.4;1099;2.27479526842584;0.6893654;1.621554;0.600663;1.571367;-0.6062176;1.15;-0.5265564;1.221629;
637951406497212230;2116.849;32;6;2.5;0.3;1.4;2510;0.99601593625498;-0.6893655;1.621553;-0.6051987;1.608763;0.6893654;1.621554;0.600663;1.571367;
637951406522197839;2119.348;32;6;2.5;0.3;1.4;2499;1.00040016006403;0.6062179;1.15;0.5624108;1.194014;-0.6893655;1.621553;-0.6051987;1.608763;
637951406548183677;2121.947;32;6;2.5;0.3;1.4;2599;0.961908426317814;-0.4499517;2.036231;-0.3930263;2.050832;0.6062179;1.15;0.5624108;1.194014;
637951406586162207;2125.745;32;6;2.5;0.3;1.4;3798;0.658241179568194;0.2394144;0.8422153;0.2229874;0.9006944;-0.4499517;2.036231;-0.3930263;2.050832;
637951406647255924;2131.854;32;6;3.5;0.2;2;4809;0.727802037845706;-0.3420197;0.5603072;-0.3194979;0.5984557;0;2.5;0.04747027;2.476433;
637951406699337624;2137.062;32;6;3.5;0.2;2;5208;0.672043010752688;0.6427875;2.266045;0.6203523;2.219996;-0.3420197;0.5603072;-0.3194979;0.5984557;
637951406720332340;2139.161;32;6;3.5;0.2;2;2099;1.66746069556932;-0.8660251;0.9999995;-0.8444202;1.089213;0.6427875;2.266045;0.6203523;2.219996;
637951406751323541;2142.26;32;6;3.5;0.2;2;3099;1.12939657954179;0.9848077;1.673648;0.9578534;1.667627;-0.8660251;0.9999995;-0.8444202;1.089213;
637951406776409175;2144.769;32;6;3.5;0.2;2;2509;1.3949780789159;-0.9848078;1.673648;-0.9247949;1.709533;0.9848077;1.673648;0.9578534;1.667627;
637951406795407970;2146.669;32;6;3.5;0.2;2;1899;1.84307530279094;0.8660256;1;0.8685433;1.065518;-0.9848078;1.673648;-0.9247949;1.709533;
637951406820378757;2149.168;32;6;3.5;0.2;2;2499;1.40056022408964;-0.6427882;2.266044;-0.6151383;2.267524;0.8660256;1;0.8685433;1.065518;
637951406889474822;2156.077;32;6;3.5;0.2;2;6908;0.506658946149392;0.3420205;0.5603075;0.3548946;0.6430755;-0.6427882;2.266044;-0.6151383;2.267524;
637951406956420926;2162.772;32;6;4.5;0.1;2.2;3198;1.40712945590994;-0.3762217;0.4663379;-0.4043951;0.5076412;0;2.6;-0.006685574;2.589116;
637951406976415420;2164.771;32;6;4.5;0.1;2.2;1999;2.25112556278139;0.7070663;2.342649;0.6615294;2.331582;-0.3762217;0.4663379;-0.4043951;0.5076412;
637951407001411033;2167.271;32;6;4.5;0.1;2.2;2499;1.80072028811525;-0.9526277;0.9499994;-0.9314924;0.995218;0.7070663;2.342649;0.6615294;2.331582;
637951407054492956;2172.579;32;6;4.5;0.1;2.2;5309;0.847617253720098;1.083289;1.691013;1.049482;1.685133;-0.9526277;0.9499994;-0.9314924;0.995218;
637951407089581649;2176.088;32;6;4.5;0.1;2.2;3509;1.28241664291821;-1.083289;1.691012;-1.060813;1.69146;1.083289;1.691013;1.049482;1.685133;
637951407120684592;2179.198;32;6;4.5;0.1;2.2;3110;1.44694533762058;0.9526281;0.9500003;0.9202443;0.985367;-1.083289;1.691012;-1.060813;1.69146;
637951407153670757;2182.497;32;6;4.5;0.1;2.2;3298;1.36446331109763;-0.7070671;2.342648;-0.7068544;2.327001;0.9526281;0.9500003;0.9202443;0.985367;
637951407179637053;2185.094;32;6;4.5;0.1;2.2;2597;1.73276857912977;0.3762226;0.4663382;0.3775839;0.491984;-0.7070671;2.342648;-0.7068544;2.327001;
637951407218640094;2188.993;32;6;3;0.2;1.4;2499;1.20048019207683;-0.2394138;0.8422151;-0.2436745;0.9287312;0;2.2;-0.006612808;2.23035;
637951407232633241;2190.393;32;6;3;0.2;1.4;1400;2.14285714285714;0.4499513;2.036231;0.3997378;2.064478;-0.2394138;0.8422151;-0.2436745;0.9287312;
637951407246626384;2191.792;32;6;3;0.2;1.4;1399;2.14438884917798;-0.6062176;1.15;-0.5687898;1.167179;0.4499513;2.036231;0.3997378;2.064478;
637951407268731349;2194.002;32;6;3;0.2;1.4;2210;1.35746606334842;0.6893654;1.621554;0.6543764;1.600554;-0.6062176;1.15;-0.5687898;1.167179;
637951407294717189;2196.601;32;6;3;0.2;1.4;2599;1.15429011158138;-0.6893655;1.621553;-0.5984076;1.626804;0.6893654;1.621554;0.6543764;1.600554;
637951407338697062;2200.999;32;6;3;0.2;1.4;4398;0.682128240109141;0.6062179;1.15;0.623889;1.184978;-0.6893655;1.621553;-0.5984076;1.626804;
637951407350689757;2202.199;32;6;3;0.2;1.4;1199;2.50208507089241;-0.4499517;2.036231;-0.3999656;2.014512;0.6062179;1.15;0.623889;1.184978;
637951407366793375;2203.809;32;6;3;0.2;1.4;1610;1.86335403726708;0.2394144;0.8422153;0.1947999;0.8879932;-0.4499517;2.036231;-0.3999656;2.014512;
637951408140212868;2281.151;32;7;4.5;0.1;2.2;2910;1.54639175257732;-0.3762217;0.4663379;-0.374359;0.4939922;0;2.6;0.001384933;2.552123;
637951408179201620;2285.05;32;7;4.5;0.1;2.2;3898;1.15443817342227;0.7070663;2.342649;0.6874962;2.297019;-0.3762217;0.4663379;-0.374359;0.4939922;
637951408208188132;2287.949;32;7;4.5;0.1;2.2;2899;1.55225939979303;-0.9526277;0.9499994;-0.9530328;0.9768612;0.7070663;2.342649;0.6874962;2.297019;
637951408261170032;2293.246;32;7;4.5;0.1;2.2;5297;0.84953747404191;1.083289;1.691013;1.046224;1.68621;-0.9526277;0.9499994;-0.9530328;0.9768612;
637951408301251752;2297.255;32;7;4.5;0.1;2.2;4009;1.12247443252681;-1.083289;1.691012;-1.065192;1.672654;1.083289;1.691013;1.046224;1.68621;
637951408327250352;2299.854;32;7;4.5;0.1;2.2;2599;1.73143516737207;0.9526281;0.9500003;0.9145219;0.9678864;-1.083289;1.691012;-1.065192;1.672654;
637951408344231514;2301.553;32;7;4.5;0.1;2.2;1699;2.64861683343143;-0.7070671;2.342648;-0.6985477;2.330423;0.9526281;0.9500003;0.9145219;0.9678864;
637951408372221382;2304.352;32;7;4.5;0.1;2.2;2799;1.60771704180064;0.3762226;0.4663382;0.3913501;0.4911921;-0.7070671;2.342648;-0.6985477;2.330423;
637951408413308537;2308.461;32;7;2.5;0.3;1.4;1399;1.78699070764832;-0.2394138;0.8422151;-0.1878704;0.9212453;0;2.2;-0.01961252;2.167591;
637951408431302576;2310.26;32;7;2.5;0.3;1.4;1799;1.38966092273485;0.4499513;2.036231;0.3606356;2.017556;-0.2394138;0.8422151;-0.1878704;0.9212453;
637951408443305270;2311.46;32;7;2.5;0.3;1.4;1200;2.08333333333333;-0.6062176;1.15;-0.5154635;1.228432;0.4499513;2.036231;0.3606356;2.017556;
637951408453297516;2312.459;32;7;2.5;0.3;1.4;999;2.5025025025025;0.6893654;1.621554;0.6961612;1.590191;-0.6062176;1.15;-0.5154635;1.228432;
637951408465290211;2313.659;32;7;2.5;0.3;1.4;1200;2.08333333333333;-0.6893655;1.621553;-0.6215967;1.636521;0.6893654;1.621554;0.6961612;1.590191;
637951408478393151;2314.969;32;7;2.5;0.3;1.4;1310;1.90839694656489;0.6062179;1.15;0.6544685;1.204324;-0.6893655;1.621553;-0.6215967;1.636521;
637951408504388990;2317.568;32;7;2.5;0.3;1.4;2599;0.961908426317814;-0.4499517;2.036231;-0.3688558;1.974337;0.6062179;1.15;0.6544685;1.204324;
637951408516431697;2318.773;32;7;2.5;0.3;1.4;1205;2.0746887966805;0.2394144;0.8422153;0.2173685;0.9902279;-0.4499517;2.036231;-0.3688558;1.974337;
637951408545368199;2321.667;32;7;4;0.1;1.4;1469;2.72294077603812;-0.2394138;0.8422151;-0.2438623;0.871325;0;2.2;-0.03526603;2.165069;
637951408565352685;2323.666;32;7;4;0.1;1.4;1999;2.00100050025012;0.4499513;2.036231;0.4234796;2.008734;-0.2394138;0.8422151;-0.2438623;0.871325;
637951408607452137;2327.875;32;7;4;0.1;1.4;4209;0.950344499881207;-0.6062176;1.15;-0.568126;1.168799;0.4499513;2.036231;0.4234796;2.008734;
637951408647541146;2331.884;32;7;4;0.1;1.4;4010;0.997506234413965;0.6893654;1.621554;0.7040496;1.610343;-0.6062176;1.15;-0.568126;1.168799;
637951408664534960;2333.583;32;7;4;0.1;1.4;1699;2.35432607416127;-0.6893655;1.621553;-0.6773859;1.637031;0.6893654;1.621554;0.7040496;1.610343;
637951408695515106;2336.682;32;7;4;0.1;1.4;3098;1.2911555842479;0.6062179;1.15;0.6098004;1.19961;-0.6893655;1.621553;-0.6773859;1.637031;
637951408710508476;2338.181;32;7;4;0.1;1.4;1499;2.66844563042028;-0.4499517;2.036231;-0.4356745;2.018903;0.6062179;1.15;0.6098004;1.19961;
637951408765598703;2343.69;32;7;4;0.1;1.4;5509;0.726084588854602;0.2394144;0.8422153;0.2338282;0.8725035;-0.4499517;2.036231;-0.4356745;2.018903;
637951408787593645;2345.889;32;7;2;0.6;1.8;1000;2;-0.3078177;0.6542765;-0.2285696;0.8758855;0;2.4;0.06966473;2.227586;
637951408810578814;2348.188;32;7;2;0.6;1.8;2299;0.869943453675511;0.5785087;2.18944;0.4712621;2.080535;-0.3078177;0.6542765;-0.2285696;0.8758855;
637951408835564417;2350.686;32;7;2;0.6;1.8;2499;0.800320128051221;-0.7794226;1.05;-0.5712452;1.226017;0.5785087;2.18944;0.4712621;2.080535;
637951408848557337;2351.986;32;7;2;0.6;1.8;1299;1.53964588144727;0.8863269;1.656283;0.6868621;1.658432;-0.7794226;1.05;-0.5712452;1.226017;
637951408861660279;2353.296;32;7;2;0.6;1.8;1311;1.5255530129672;-0.8863271;1.656283;-0.7641501;1.688008;0.8863269;1.656283;0.6868621;1.658432;
637951408873712991;2354.501;32;7;2;0.6;1.8;1205;1.6597510373444;0.779423;1.05;0.6841217;1.207144;-0.8863271;1.656283;-0.7641501;1.688008;
637951408883655220;2355.495;32;7;2;0.6;1.8;994;2.01207243460765;-0.5785094;2.18944;-0.6901634;2.208281;0.779423;1.05;0.6841217;1.207144;
637951408905660160;2357.695;32;7;2;0.6;1.8;2200;0.909090909090909;0.3078185;0.6542768;0.2937254;0.8859415;-0.5785094;2.18944;-0.6901634;2.208281;
637951408937627341;2360.893;32;7;1.5;1.1;2;1199;1.25104253544621;-0.3420197;0.5603072;-0.1967607;0.9588679;0;2.5;0.1134846;2.268193;
637951408948629814;2361.992;32;7;1.5;1.1;2;1100;1.36363636363636;0.6427875;2.266045;0.715058;2.15617;-0.3420197;0.5603072;-0.1967607;0.9588679;
637951408960622506;2363.192;32;7;1.5;1.1;2;1199;1.25104253544621;-0.8660251;0.9999995;-0.7528698;1.374705;0.6427875;2.266045;0.715058;2.15617;
637951408969614528;2364.091;32;7;1.5;1.1;2;899;1.66852057842047;0.9848077;1.673648;0.876698;1.688426;-0.8660251;0.9999995;-0.7528698;1.374705;
637951408979606783;2365.091;32;7;1.5;1.1;2;1000;1.5;-0.9848078;1.673648;-0.8602751;1.775239;0.9848077;1.673648;0.876698;1.688426;
637951408989609011;2366.091;32;7;1.5;1.1;2;1000;1.5;0.8660256;1;0.8725571;1.270531;-0.9848078;1.673648;-0.8602751;1.775239;
637951408999601262;2367.09;32;7;1.5;1.1;2;1000;1.5;-0.6427882;2.266044;-0.4034161;2.129118;0.8660256;1;0.8725571;1.270531;
637951409019595752;2369.089;32;7;1.5;1.1;2;1999;0.750375187593797;0.3420205;0.5603075;0.3372947;1.061871;-0.6427882;2.266044;-0.4034161;2.129118;
637951409044692995;2371.599;32;7;3.5;0.2;2;1399;2.50178699070765;-0.3420197;0.5603072;-0.3429085;0.6195166;0;2.5;0.02325751;2.45045;
637951409057685073;2372.898;32;7;3.5;0.2;2;1299;2.69438029253272;0.6427875;2.266045;0.6212353;2.224111;-0.3420197;0.5603072;-0.3429085;0.6195166;
637951409072728453;2374.403;32;7;3.5;0.2;2;1505;2.32558139534884;-0.8660251;0.9999995;-0.8321723;1.053223;0.6427875;2.266045;0.6212353;2.224111;
637951409082670689;2375.397;32;7;3.5;0.2;2;994;3.52112676056338;0.9848077;1.673648;0.9578841;1.647663;-0.8660251;0.9999995;-0.8321723;1.053223;
637951409120713350;2379.201;32;7;3.5;0.2;2;3803;0.920326058374967;-0.9848078;1.673648;-0.9647685;1.684669;0.9848077;1.673648;0.9578841;1.647663;
637951409149749868;2382.105;32;7;3.5;0.2;2;2905;1.20481927710843;0.8660256;1;0.8319395;1.019073;-0.9848078;1.673648;-0.9647685;1.684669;
637951409166753695;2383.805;32;7;3.5;0.2;2;1699;2.06003531489111;-0.6427882;2.266044;-0.6278452;2.234131;0.8660256;1;0.8319395;1.019073;
637951409192789539;2386.408;32;7;3.5;0.2;2;2604;1.34408602150538;0.3420205;0.5603075;0.3120902;0.6184536;-0.6427882;2.266044;-0.6278452;2.234131;
637951409224716713;2389.602;32;7;3;0.2;1.4;1500;2;-0.2394138;0.8422151;-0.196596;0.9043673;0;2.2;0.002530552;2.156652;
637951409245711428;2391.701;32;7;3;0.2;1.4;2099;1.4292520247737;0.4499513;2.036231;0.3636105;2.002035;-0.2394138;0.8422151;-0.196596;0.9043673;
637951409269806838;2394.111;32;7;3;0.2;1.4;2410;1.2448132780083;-0.6062176;1.15;-0.5856007;1.214634;0.4499513;2.036231;0.3636105;2.002035;
637951409297853140;2396.915;32;7;3;0.2;1.4;2804;1.06990014265335;0.6893654;1.621554;0.6333284;1.618956;-0.6062176;1.15;-0.5856007;1.214634;
637951409310796047;2398.209;32;7;3;0.2;1.4;1294;2.31839258114374;-0.6893655;1.621553;-0.6806278;1.654121;0.6893654;1.621554;0.6333284;1.618956;
637951409361817503;2403.312;32;7;3;0.2;1.4;5103;0.587889476778366;0.6062179;1.15;0.5562416;1.151544;-0.6893655;1.621553;-0.6806278;1.654121;
637951409387753330;2405.905;32;7;3;0.2;1.4;2593;1.15696104897802;-0.4499517;2.036231;-0.4198276;1.972535;0.6062179;1.15;0.5562416;1.151544;
637951409411853693;2408.315;32;7;3;0.2;1.4;2410;1.2448132780083;0.2394144;0.8422153;0.2107873;0.8930001;-0.4499517;2.036231;-0.4198276;1.972535;
