637945290817316773;338.6407;7;0;2.5;0.3;1.4;15904;0.157193158953722;-0.2394138;0.8422151;-0.1961591;0.9315094;0;2.2;0.03000158;2.161723;
637945290844302874;341.3394;7;0;2.5;0.3;1.4;2699;0.926268988514265;0.4499513;2.036231;0.4256981;1.953339;-0.2394138;0.8422151;-0.1961591;0.9315094;
637945290868288308;343.7384;7;0;2.5;0.3;1.4;2399;1.04210087536474;-0.6062176;1.15;-0.5744155;1.244194;0.4499513;2.036231;0.4256981;1.953339;
637945290883281705;345.2375;7;0;2.5;0.3;1.4;1499;1.66777851901268;0.6893654;1.621554;0.6144165;1.537266;-0.6062176;1.15;-0.5744155;1.244194;
637945290909267578;347.8364;7;0;2.5;0.3;1.4;2599;0.961908426317814;-0.6893655;1.621553;-0.6718771;1.607804;0.6893654;1.621554;0.6144165;1.537266;
637945290995341905;356.4435;7;0;2.5;0.3;1.4;8607;0.290461252468921;0.6062179;1.15;0.5579934;1.242285;-0.6893655;1.621553;-0.6718771;1.607804;
637945291093412318;366.25;7;0;2.5;0.3;1.4;9806;0.254945951458291;-0.4499517;2.036231;-0.44978;2.009082;0.6062179;1.15;0.5579934;1.242285;
637945291191364481;376.0456;7;0;2.5;0.3;1.4;9796;0.255206206614945;0.2394144;0.8422153;0.2200943;0.8996357;-0.4499517;2.036231;-0.44978;2.009082;
637945293470313028;603.9399;7;0;3;0.2;1.4;163158;0.0183870849115581;-0.2394138;0.8422151;-0.2008114;0.8682792;0;2.2;0.001749239;2.205046;
637945293612354931;618.1443;7;0;3;0.2;1.4;14204;0.211208110391439;0.4499513;2.036231;0.4478785;2.019917;-0.2394138;0.8422151;-0.2008114;0.8682792;
637945293998524923;656.7597;7;0;3;0.2;1.4;38615;0.077690016832837;-0.6062176;1.15;-0.5517747;1.157331;0.4499513;2.036231;0.4478785;2.019917;
637945294012518086;658.159;7;0;3;0.2;1.4;1399;2.14438884917798;0.6893654;1.621554;0.6422521;1.640322;-0.6062176;1.15;-0.5517747;1.157331;
637945294022510351;659.1586;7;0;3;0.2;1.4;1000;3;-0.6893655;1.621553;-0.6389333;1.658205;0.6893654;1.621554;0.6422521;1.640322;
637945294034503058;660.3583;7;0;3;0.2;1.4;1200;2.5;0.6062179;1.15;0.5789352;1.203531;-0.6893655;1.621553;-0.6389333;1.658205;
637945294043505092;661.2578;7;0;3;0.2;1.4;900;3.33333333333333;-0.4499517;2.036231;-0.3654715;2.083849;0.6062179;1.15;0.5789352;1.203531;
637945294057608280;662.6682;7;0;3;0.2;1.4;1410;2.12765957446809;0.2394144;0.8422153;0.2521118;0.8581799;-0.4499517;2.036231;-0.3654715;2.083849;
637945294078593029;664.7672;7;0;1.5;1.1;2;1199;1.25104253544621;-0.3420197;0.5603072;-0.2538702;0.9568304;0;2.5;-0.02309854;2.319483;
637945294088595292;665.7668;7;0;1.5;1.1;2;1000;1.5;0.6427875;2.266045;0.4874836;2.108579;-0.3420197;0.5603072;-0.2538702;0.9568304;
637945294096587098;666.5665;7;0;1.5;1.1;2;800;1.875;-0.8660251;0.9999995;-0.8445432;1.29594;0.6427875;2.266045;0.4874836;2.108579;
637945294103588681;667.2661;7;0;1.5;1.1;2;700;2.14285714285714;0.9848077;1.673648;0.8852478;1.604165;-0.8660251;0.9999995;-0.8445432;1.29594;
637945294109580040;667.8658;7;0;1.5;1.1;2;600;2.5;-0.9848078;1.673648;-0.9253214;1.599352;0.9848077;1.673648;0.8852478;1.604165;
637945294119572296;668.8654;7;0;1.5;1.1;2;1000;1.5;0.8660256;1;0.842351;1.326091;-0.9848078;1.673648;-0.9253214;1.599352;
637945294126573880;669.5648;7;0;1.5;1.1;2;699;2.14592274678112;-0.6427882;2.266044;-0.4650846;2.230209;0.8660256;1;0.842351;1.326091;
637945294132565237;670.1646;7;0;1.5;1.1;2;600;2.5;0.3420205;0.5603075;0.397676;0.8132622;-0.6427882;2.266044;-0.4650846;2.230209;
637945294172554281;674.1628;7;0;4;0.1;1.4;2099;1.90566936636494;-0.2394138;0.8422151;-0.2428937;0.8851033;0;2.2;-0.01645968;2.175081;
637945294194539253;676.3617;7;0;4;0.1;1.4;2199;1.81900864029104;0.4499513;2.036231;0.4491696;2.063038;-0.2394138;0.8422151;-0.2428937;0.8851033;
637945294217534453;678.6606;7;0;4;0.1;1.4;2299;1.73988690735102;-0.6062176;1.15;-0.6344312;1.14827;0.4499513;2.036231;0.4491696;2.063038;
637945294254999474;682.415;7;0;4;0.1;1.4;3754;1.06553010122536;0.6893654;1.621554;0.690869;1.580219;-0.6062176;1.15;-0.6344312;1.14827;
637945294270733030;683.9806;7;0;4;0.1;1.4;1566;2.55427841634738;-0.6893655;1.621553;-0.6498963;1.616716;0.6893654;1.621554;0.690869;1.580219;
637945294298607502;686.768;7;0;4;0.1;1.4;2787;1.43523501973448;0.6062179;1.15;0.5817337;1.136175;-0.6893655;1.621553;-0.6498963;1.616716;
637945294322589519;689.1671;7;0;4;0.1;1.4;2399;1.66736140058358;-0.4499517;2.036231;-0.4618773;2.037482;0.6062179;1.15;0.5817337;1.136175;
637945294347695199;691.6769;7;0;4;0.1;1.4;2510;1.59362549800797;0.2394144;0.8422153;0.2414665;0.813912;-0.4499517;2.036231;-0.4618773;2.037482;
637945294402667631;697.1743;7;0;4.5;0.1;2.2;3398;1.32430841671572;-0.3762217;0.4663379;-0.3776479;0.516317;0;2.6;0.003219485;2.552514;
637945294423662379;699.2737;7;0;4.5;0.1;2.2;2099;2.14387803716055;0.7070663;2.342649;0.6875087;2.318059;-0.3762217;0.4663379;-0.3776479;0.516317;
637945294446647575;701.5723;7;0;4.5;0.1;2.2;2299;1.9573727707699;-0.9526277;0.9499994;-0.9599114;0.9763467;0.7070663;2.342649;0.6875087;2.318059;
637945294473633680;704.2712;7;0;4.5;0.1;2.2;2699;1.66728417932568;1.083289;1.691013;1.03689;1.674268;-0.9526277;0.9499994;-0.9599114;0.9763467;
637945294498619329;706.77;7;0;4.5;0.1;2.2;2499;1.80072028811525;-1.083289;1.691012;-1.074852;1.686833;1.083289;1.691013;1.03689;1.674268;
637945294523725010;709.2802;7;0;4.5;0.1;2.2;2510;1.79282868525896;0.9526281;0.9500003;0.977592;0.9834071;-1.083289;1.691012;-1.074852;1.686833;
637945294549710885;711.8787;7;0;4.5;0.1;2.2;2599;1.73143516737207;-0.7070671;2.342648;-0.7113147;2.350857;0.9526281;0.9500003;0.977592;0.9834071;
637945294582698346;715.1772;7;0;4.5;0.1;2.2;3298;1.36446331109763;0.3762226;0.4663382;0.3464406;0.49585;-0.7070671;2.342648;-0.7113147;2.350857;
637945294605687336;717.4761;7;0;2;0.6;1.8;1000;2;-0.3078177;0.6542765;-0.2984189;0.8076007;0;2.4;-0.004162736;2.258942;
637945294616677531;718.5755;7;0;2;0.6;1.8;1099;1.81983621474067;0.5785087;2.18944;0.5822219;2.278399;-0.3078177;0.6542765;-0.2984189;0.8076007;
637945294625669566;719.475;7;0;2;0.6;1.8;900;2.22222222222222;-0.7794226;1.05;-0.7865446;1.188959;0.5785087;2.18944;0.5822219;2.278399;
637945294634671604;720.375;7;0;2;0.6;1.8;900;2.22222222222222;0.8863269;1.656283;0.8672811;1.681158;-0.7794226;1.05;-0.7865446;1.188959;
637945294644663863;721.3743;7;0;2;0.6;1.8;999;2.002002002002;-0.8863271;1.656283;-0.7965179;1.619128;0.8863269;1.656283;0.8672811;1.681158;
637945294659768583;722.8846;7;0;2;0.6;1.8;1510;1.32450331125828;0.779423;1.05;0.7141086;1.191601;-0.8863271;1.656283;-0.7965179;1.619128;
637945294670764577;723.9843;7;0;2;0.6;1.8;1100;1.81818181818182;-0.5785094;2.18944;-0.6295329;2.0898;0.779423;1.05;0.7141086;1.191601;
637945294703752037;727.2827;7;0;2;0.6;1.8;3298;0.606428138265616;0.3078185;0.6542768;0.2697579;0.847886;-0.5785094;2.18944;-0.6295329;2.0898;
637945294774828117;734.3904;7;0;3.5;0.2;2;2599;1.34667179684494;-0.3420197;0.5603072;-0.3426806;0.6142734;0;2.5;-0.005298227;2.416946;
637945294795822865;736.4896;7;0;3.5;0.2;2;2099;1.66746069556932;0.6427875;2.266045;0.6548504;2.26492;-0.3420197;0.5603072;-0.3426806;0.6142734;
637945294813806928;738.2886;7;0;3.5;0.2;2;1799;1.94552529182879;-0.8660251;0.9999995;-0.8513718;1.076041;0.6427875;2.266045;0.6548504;2.26492;
637945294863898259;743.2973;7;0;3.5;0.2;2;5009;0.698742263924935;0.9848077;1.673648;0.9559377;1.713004;-0.8660251;0.9999995;-0.8513718;1.076041;
637945294898886174;746.7958;7;0;3.5;0.2;2;3498;1.00057175528874;-0.9848078;1.673648;-0.9678924;1.653509;0.9848077;1.673648;0.9559377;1.713004;
637945294934864308;750.3943;7;0;3.5;0.2;2;3599;0.972492358988608;0.8660256;1;0.8104715;1.031585;-0.9848078;1.673648;-0.9678924;1.653509;
637945294970842446;753.9924;7;0;3.5;0.2;2;3598;0.972762645914397;-0.6427882;2.266044;-0.6189806;2.243897;0.8660256;1;0.8104715;1.031585;
637945294988836514;755.7917;7;0;3.5;0.2;2;1799;1.94552529182879;0.3420205;0.5603075;0.3873087;0.5681419;-0.6427882;2.266044;-0.6189806;2.243897;
637945296290334810;885.9423;7;1;4.5;0.1;2.2;1999;2.25112556278139;-0.3762217;0.4663379;-0.3651162;0.514778;0;2.6;0.00818862;2.559171;
637945296304439312;887.3528;7;1;4.5;0.1;2.2;1410;3.19148936170213;0.7070663;2.342649;0.6958666;2.301966;-0.3762217;0.4663379;-0.3651162;0.514778;
637945296321433157;889.052;7;1;4.5;0.1;2.2;1699;2.64861683343143;-0.9526277;0.9499994;-0.9220035;0.9840975;0.7070663;2.342649;0.6958666;2.301966;
637945296344418346;891.3511;7;1;4.5;0.1;2.2;2299;1.9573727707699;1.083289;1.691013;1.080356;1.709643;-0.9526277;0.9499994;-0.9220035;0.9840975;
637945296363412649;893.2502;7;1;4.5;0.1;2.2;1899;2.3696682464455;-1.083289;1.691012;-1.062877;1.733958;1.083289;1.691013;1.080356;1.709643;
637945296380616541;894.978;7;1;4.5;0.1;2.2;1728;2.60416666666667;0.9526281;0.9500003;0.9229685;0.9112983;-1.083289;1.691012;-1.062877;1.733958;
637945296548434489;911.7527;7;1;4.5;0.1;2.2;16775;0.268256333830104;-0.7070671;2.342648;-0.7164338;2.307066;0.9526281;0.9500003;0.9229685;0.9112983;
637945296593414671;916.2505;7;1;4.5;0.1;2.2;4498;1.00044464206314;0.3762226;0.4663382;0.3850122;0.5142779;-0.7070671;2.342648;-0.7164338;2.307066;
637945296614511654;918.3608;7;1;2;0.6;1.8;1099;1.81983621474067;-0.3078177;0.6542765;-0.2449715;0.9002745;0;2.4;-0.009977628;2.278694;
637945296624513917;919.3603;7;1;2;0.6;1.8;1000;2;0.5785087;2.18944;0.5470179;2.349353;-0.3078177;0.6542765;-0.2449715;0.9002745;
637945296634506176;920.3597;7;1;2;0.6;1.8;999;2.002002002002;-0.7794226;1.05;-0.7597238;1.277577;0.5785087;2.18944;0.5470179;2.349353;
637945296642501308;921.1593;7;1;2;0.6;1.8;800;2.5;0.8863269;1.656283;0.8338455;1.722793;-0.7794226;1.05;-0.7597238;1.277577;
637945296652498459;922.159;7;1;2;0.6;1.8;1000;2;-0.8863271;1.656283;-0.7826616;1.733425;0.8863269;1.656283;0.8338455;1.722793;
637945296661490494;923.0586;7;1;2;0.6;1.8;900;2.22222222222222;0.779423;1.05;0.7767025;1.253383;-0.8863271;1.656283;-0.7826616;1.733425;
637945296674483425;924.358;7;1;2;0.6;1.8;1299;1.53964588144727;-0.5785094;2.18944;-0.4972857;2.078181;0.779423;1.05;0.7767025;1.253383;
637945296687486371;925.6573;7;1;2;0.6;1.8;1299;1.53964588144727;0.3078185;0.6542768;0.2695859;0.860283;-0.5785094;2.18944;-0.4972857;2.078181;
637945296712472023;928.1563;7;1;3;0.2;1.4;1299;2.3094688221709;-0.2394138;0.8422151;-0.2323816;0.8614321;0;2.2;0.05534396;2.212369;
637945296723464509;929.2557;7;1;3;0.2;1.4;1099;2.72975432211101;0.4499513;2.036231;0.4016497;2.059611;-0.2394138;0.8422151;-0.2323816;0.8614321;
637945296734567022;930.3663;7;1;3;0.2;1.4;1111;2.7002700270027;-0.6062176;1.15;-0.5908827;1.144472;0.4499513;2.036231;0.4016497;2.059611;
637945296744559286;931.3657;7;1;3;0.2;1.4;999;3.003003003003;0.6893654;1.621554;0.6466773;1.636049;-0.6062176;1.15;-0.5908827;1.144472;
637945296753561318;932.2654;7;1;3;0.2;1.4;900;3.33333333333333;-0.6893655;1.621553;-0.7282875;1.653186;0.6893654;1.621554;0.6466773;1.636049;
637945296774546065;934.3643;7;1;3;0.2;1.4;2099;1.4292520247737;0.6062179;1.15;0.5931081;1.174351;-0.6893655;1.621553;-0.7282875;1.653186;
637945296787549002;935.664;7;1;3;0.2;1.4;1300;2.30769230769231;-0.4499517;2.036231;-0.4140249;2.026658;0.6062179;1.15;0.5931081;1.174351;
637945296848512783;941.7609;7;1;3;0.2;1.4;6097;0.492045268164671;0.2394144;0.8422153;0.2288232;0.935276;-0.4499517;2.036231;-0.4140249;2.026658;
637945296873508442;944.2599;7;1;3.5;0.2;2;1300;2.69230769230769;-0.3420197;0.5603072;-0.2878286;0.6296979;0;2.5;0.04197862;2.481236;
637945296883510704;945.2596;7;1;3.5;0.2;2;1000;3.5;0.6427875;2.266045;0.6340807;2.256265;-0.3420197;0.5603072;-0.2878286;0.6296979;
637945296893612990;946.27;7;1;3.5;0.2;2;1010;3.46534653465347;-0.8660251;0.9999995;-0.8201198;1.027801;0.6427875;2.266045;0.6340807;2.256265;
637945296901604797;947.0696;7;1;3.5;0.2;2;800;4.375;0.9848077;1.673648;0.9569417;1.701337;-0.8660251;0.9999995;-0.8201198;1.027801;
637945296911597057;948.0692;7;1;3.5;0.2;2;1000;3.5;-0.9848078;1.673648;-0.9288182;1.64625;0.9848077;1.673648;0.9569417;1.701337;
637945296920599093;948.9688;7;1;3.5;0.2;2;900;3.88888888888889;0.8660256;1;0.8978193;1.004195;-0.9848078;1.673648;-0.9288182;1.64625;
637945296930591353;949.9684;7;1;3.5;0.2;2;1000;3.5;-0.6427882;2.266044;-0.6150293;2.24036;0.8660256;1;0.8978193;1.004195;
637945296941583840;951.0678;7;1;3.5;0.2;2;1099;3.18471337579618;0.3420205;0.5603075;0.3927317;0.6401035;-0.6427882;2.266044;-0.6150293;2.24036;
637945296958579021;952.767;7;1;2.5;0.3;1.4;900;2.77777777777778;-0.2394138;0.8422151;-0.2505233;0.8825107;0;2.2;0.03779177;2.236756;
637945296969571510;953.8666;7;1;2.5;0.3;1.4;1100;2.27272727272727;0.4499513;2.036231;0.4775152;1.898689;-0.2394138;0.8422151;-0.2505233;0.8825107;
637945296980564000;954.966;7;1;2.5;0.3;1.4;1099;2.27479526842584;-0.6062176;1.15;-0.5346638;1.206843;0.4499513;2.036231;0.4775152;1.898689;
637945296988565802;955.7656;7;1;2.5;0.3;1.4;800;3.125;0.6893654;1.621554;0.7190269;1.744268;-0.6062176;1.15;-0.5346638;1.206843;
637945297000556916;956.9649;7;1;2.5;0.3;1.4;1199;2.08507089241034;-0.6893655;1.621553;-0.6018481;1.568218;0.6893654;1.621554;0.7190269;1.744268;
637945297014547614;958.3643;7;1;2.5;0.3;1.4;1399;1.78699070764832;0.6062179;1.15;0.5178118;1.166031;-0.6893655;1.621553;-0.6018481;1.568218;
637945297026660354;959.575;7;1;2.5;0.3;1.4;1211;2.06440957886045;-0.4499517;2.036231;-0.4067862;2.011809;0.6062179;1.15;0.5178118;1.166031;
637945297035652389;960.4744;7;1;2.5;0.3;1.4;899;2.78086763070078;0.2394144;0.8422153;0.2314412;0.9875118;-0.4499517;2.036231;-0.4067862;2.011809;
637945297071640529;964.0729;7;1;4;0.1;1.4;2099;1.90566936636494;-0.2394138;0.8422151;-0.2203008;0.8246508;0;2.2;0.01316684;2.206485;
637945297084633467;965.3726;7;1;4;0.1;1.4;1300;3.07692307692308;0.4499513;2.036231;0.4624113;2.017366;-0.2394138;0.8422151;-0.2203008;0.8246508;
637945297107618665;967.6711;7;1;4;0.1;1.4;2299;1.73988690735102;-0.6062176;1.15;-0.5928605;1.185835;0.4499513;2.036231;0.4624113;2.017366;
637945297125612734;969.4704;7;1;4;0.1;1.4;1799;2.22345747637576;0.6893654;1.621554;0.6632332;1.630112;-0.6062176;1.15;-0.5928605;1.185835;
637945297144717061;971.3805;7;1;4;0.1;1.4;1910;2.09424083769634;-0.6893655;1.621553;-0.6700323;1.603902;0.6893654;1.621554;0.6632332;1.630112;
637945297158710225;972.78;7;1;4;0.1;1.4;1399;2.85918513223731;0.6062179;1.15;0.5916943;1.169259;-0.6893655;1.621553;-0.6700323;1.603902;
637945297172703383;974.1793;7;1;4;0.1;1.4;1399;2.85918513223731;-0.4499517;2.036231;-0.4075544;2.012512;0.6062179;1.15;0.5916943;1.169259;
637945297182695644;975.1787;7;1;4;0.1;1.4;999;4.004004004004;0.2394144;0.8422153;0.2343422;0.8858626;-0.4499517;2.036231;-0.4075544;2.012512;
637945297203690392;977.2781;7;1;1.5;1.1;2;1300;1.15384615384615;-0.3420197;0.5603072;-0.2585177;0.8486814;0;2.5;0.006882541;2.13476;
637945297215683104;978.4776;7;1;1.5;1.1;2;1200;1.25;0.6427875;2.266045;0.4375556;2.101547;-0.3420197;0.5603072;-0.2585177;0.8486814;
637945297224675138;979.3769;7;1;1.5;1.1;2;899;1.66852057842047;-0.8660251;0.9999995;-0.939952;1.277202;0.6427875;2.266045;0.4375556;2.101547;
637945297233677173;980.2766;7;1;1.5;1.1;2;900;1.66666666666667;0.9848077;1.673648;0.6246952;1.675564;-0.8660251;0.9999995;-0.939952;1.277202;
637945297242779233;981.1873;7;1;1.5;1.1;2;911;1.64654226125137;-0.9848078;1.673648;-0.5768291;1.706955;0.9848077;1.673648;0.6246952;1.675564;
637945297254771947;982.3867;7;1;1.5;1.1;2;1199;1.25104253544621;0.8660256;1;0.5336973;1.354947;-0.9848078;1.673648;-0.5768291;1.706955;
637945297262773754;983.1863;7;1;1.5;1.1;2;800;1.875;-0.6427882;2.266044;-0.5628666;2.204084;0.8660256;1;0.5336973;1.354947;
637945297272766014;984.1859;7;1;1.5;1.1;2;1000;1.5;0.3420205;0.5603075;0.3082911;0.9937171;-0.6427882;2.266044;-0.5628666;2.204084;
637945297774885178;1034.396;7;2;3;0.2;1.4;1165;2.57510729613734;-0.2394138;0.8422151;-0.2589197;0.9390464;0;2.2;0.06544036;2.268853;
637945297782876985;1035.195;7;2;3;0.2;1.4;799;3.75469336670839;0.4499513;2.036231;0.5092004;2.043465;-0.2394138;0.8422151;-0.2589197;0.9390464;
637945297793859470;1036.295;7;2;3;0.2;1.4;1100;2.72727272727273;-0.6062176;1.15;-0.5674971;1.159741;0.4499513;2.036231;0.5092004;2.043465;
637945297801851278;1037.094;7;2;3;0.2;1.4;799;3.75469336670839;0.6893654;1.621554;0.6541527;1.677073;-0.6062176;1.15;-0.5674971;1.159741;
637945297810963338;1038.005;7;2;3;0.2;1.4;911;3.29308452250274;-0.6893655;1.621553;-0.6912066;1.634597;0.6893654;1.621554;0.6541527;1.677073;
637945297823956277;1039.305;7;2;3;0.2;1.4;1299;2.3094688221709;0.6062179;1.15;0.5584234;1.163753;-0.6893655;1.621553;-0.6912066;1.634597;
637945297832948311;1040.204;7;2;3;0.2;1.4;899;3.33704115684093;-0.4499517;2.036231;-0.4424804;2.090714;0.6062179;1.15;0.5584234;1.163753;
637945297859934413;1042.903;7;2;3;0.2;1.4;2699;1.11152278621712;0.2394144;0.8422153;0.2185438;0.8788066;-0.4499517;2.036231;-0.4424804;2.090714;
637945297913906621;1048.3;7;2;4.5;0.1;2.2;2199;2.04638472032742;-0.3762217;0.4663379;-0.3837981;0.4974333;0;2.6;0.01960362;2.599715;
637945297930900463;1050;7;2;4.5;0.1;2.2;1699;2.64861683343143;0.7070663;2.342649;0.6880036;2.327827;-0.3762217;0.4663379;-0.3837981;0.4974333;
637945297950164821;1051.933;7;2;4.5;0.1;2.2;1934;2.32678386763185;-0.9526277;0.9499994;-0.9063904;0.9364575;0.7070663;2.342649;0.6880036;2.327827;
637945297974000214;1054.309;7;2;4.5;0.1;2.2;2375;1.89473684210526;1.083289;1.691013;1.080372;1.670116;-0.9526277;0.9499994;-0.9063904;0.9364575;
637945297995195002;1056.436;7;2;4.5;0.1;2.2;2128;2.11466165413534;-1.083289;1.691012;-1.035404;1.67654;1.083289;1.691013;1.080372;1.670116;
637945298011981270;1058.107;7;2;4.5;0.1;2.2;1671;2.69299820466786;0.9526281;0.9500003;0.9234511;0.9595655;-1.083289;1.691012;-1.035404;1.67654;
637945298024974211;1059.406;7;2;4.5;0.1;2.2;1299;3.46420323325635;-0.7070671;2.342648;-0.6674458;2.313643;0.9526281;0.9500003;0.9234511;0.9595655;
637945298044958728;1061.406;7;2;4.5;0.1;2.2;1999;2.25112556278139;0.3762226;0.4663382;0.3922385;0.4868065;-0.7070671;2.342648;-0.6674458;2.313643;
637945298066954422;1063.604;7;2;3.5;0.2;2;1200;2.91666666666667;-0.3420197;0.5603072;-0.3175728;0.6148555;0;2.5;0.02345044;2.47458;
637945298090374950;1065.954;7;2;3.5;0.2;2;2350;1.48936170212766;0.6427875;2.266045;0.6312062;2.344279;-0.3420197;0.5603072;-0.3175728;0.6148555;
637945298102047593;1067.114;7;2;3.5;0.2;2;1160;3.01724137931034;-0.8660251;0.9999995;-0.7722813;1.018889;0.6427875;2.266045;0.6312062;2.344279;
637945298119041436;1068.813;7;2;3.5;0.2;2;1700;2.05882352941176;0.9848077;1.673648;0.9213978;1.613567;-0.8660251;0.9999995;-0.7722813;1.018889;
637945298138035731;1070.712;7;2;3.5;0.2;2;1899;1.84307530279094;-0.9848078;1.673648;-0.9709417;1.678045;0.9848077;1.673648;0.9213978;1.613567;
637945298153029123;1072.212;7;2;3.5;0.2;2;1499;2.33488992661775;0.8660256;1;0.9183545;1.069036;-0.9848078;1.673648;-0.9709417;1.678045;
637945298168022515;1073.711;7;2;3.5;0.2;2;1499;2.33488992661775;-0.6427882;2.266044;-0.6223304;2.210133;0.8660256;1;0.9183545;1.069036;
637945298180015227;1074.911;7;2;3.5;0.2;2;1200;2.91666666666667;0.3420205;0.5603075;0.3269796;0.605834;-0.6427882;2.266044;-0.6223304;2.210133;
637945298218994042;1078.808;7;2;4;0.1;1.4;1758;2.27531285551763;-0.2394138;0.8422151;-0.1955533;0.859489;0;2.2;0.04492113;2.196932;
637945298244979920;1081.407;7;2;4;0.1;1.4;2599;1.5390534821085;0.4499513;2.036231;0.4218614;2.065439;-0.2394138;0.8422151;-0.1955533;0.859489;
637945298285078987;1085.417;7;2;4;0.1;1.4;4009;0.997755051134946;-0.6062176;1.15;-0.5869404;1.171316;0.4499513;2.036231;0.4218614;2.065439;
637945298315055767;1088.415;7;2;4;0.1;1.4;2999;1.33377792597533;0.6893654;1.621554;0.6868634;1.598867;-0.6062176;1.15;-0.5869404;1.171316;
637945298328058709;1089.714;7;2;4;0.1;1.4;1299;3.07929176289453;-0.6893655;1.621553;-0.6534631;1.623872;0.6893654;1.621554;0.6868634;1.598867;
637945298343052100;1091.214;7;2;4;0.1;1.4;1500;2.66666666666667;0.6062179;1.15;0.5951661;1.172585;-0.6893655;1.621553;-0.6534631;1.623872;
637945298354044586;1092.313;7;2;4;0.1;1.4;1099;3.63967242948135;-0.4499517;2.036231;-0.457221;2.038275;0.6062179;1.15;0.5951661;1.172585;
637945298382140732;1095.123;7;2;4;0.1;1.4;2810;1.42348754448399;0.2394144;0.8422153;0.239181;0.8911587;-0.4499517;2.036231;-0.457221;2.038275;
637945298403130816;1097.222;7;2;2.5;0.3;1.4;1099;2.27479526842584;-0.2394138;0.8422151;-0.2422752;0.8676387;0;2.2;-0.0234217;2.230504;
637945298412122853;1098.122;7;2;2.5;0.3;1.4;900;2.77777777777778;0.4499513;2.036231;0.3866928;1.998454;-0.2394138;0.8422151;-0.2422752;0.8676387;
637945298431227175;1100.032;7;2;2.5;0.3;1.4;1910;1.30890052356021;-0.6062176;1.15;-0.5178589;1.116198;0.4499513;2.036231;0.3866928;1.998454;
637945298442219662;1101.132;7;2;2.5;0.3;1.4;1100;2.27272727272727;0.6893654;1.621554;0.6341298;1.673866;-0.6062176;1.15;-0.5178589;1.116198;
637945298451221984;1102.031;7;2;2.5;0.3;1.4;899;2.78086763070078;-0.6893655;1.621553;-0.70656;1.59973;0.6893654;1.621554;0.6341298;1.673866;
637945298460217037;1102.931;7;2;2.5;0.3;1.4;900;2.77777777777778;0.6062179;1.15;0.5386666;1.197411;-0.6893655;1.621553;-0.70656;1.59973;
637945298468207040;1103.73;7;2;2.5;0.3;1.4;800;3.125;-0.4499517;2.036231;-0.4993599;2.131365;0.6062179;1.15;0.5386666;1.197411;
637945298478207095;1104.73;7;2;2.5;0.3;1.4;1000;2.5;0.2394144;0.8422153;0.2526862;0.8982798;-0.4499517;2.036231;-0.4993599;2.131365;
637945298504197547;1107.329;7;2;1.5;1.1;2;1299;1.15473441108545;-0.3420197;0.5603072;-0.2323614;0.9911149;0;2.5;-0.03258056;2.15281;
637945298521182233;1109.028;7;2;1.5;1.1;2;1699;0.882872277810477;0.6427875;2.266045;0.4730869;2.219551;-0.3420197;0.5603072;-0.2323614;0.9911149;
637945298529184041;1109.827;7;2;1.5;1.1;2;800;1.875;-0.8660251;0.9999995;-0.8101898;1.315194;0.6427875;2.266045;0.4730869;2.219551;
637945298536175622;1110.527;7;2;1.5;1.1;2;700;2.14285714285714;0.9848077;1.673648;0.6906283;1.664274;-0.8660251;0.9999995;-0.8101898;1.315194;
637945298542176979;1111.127;7;2;1.5;1.1;2;600;2.5;-0.9848078;1.673648;-0.9530845;1.670131;0.9848077;1.673648;0.6906283;1.664274;
637945298549178564;1111.827;7;2;1.5;1.1;2;700;2.14285714285714;0.8660256;1;0.6180062;1.229486;-0.9848078;1.673648;-0.9530845;1.670131;
637945298556280169;1112.537;7;2;1.5;1.1;2;711;2.10970464135021;-0.6427882;2.266044;-0.5546775;2.157629;0.8660256;1;0.6180062;1.229486;
637945298568282886;1113.737;7;2;1.5;1.1;2;1199;1.25104253544621;0.3420205;0.5603075;0.4158249;0.8000045;-0.6427882;2.266044;-0.5546775;2.157629;
637945298585266724;1115.436;7;2;2;0.6;1.8;800;2.5;-0.3078177;0.6542765;-0.2794206;0.7886032;0;2.4;-0.05354166;2.168021;
637945298594268760;1116.336;7;2;2;0.6;1.8;900;2.22222222222222;0.5785087;2.18944;0.4015063;2.158472;-0.3078177;0.6542765;-0.2794206;0.7886032;
637945298602260568;1117.135;7;2;2;0.6;1.8;800;2.5;-0.7794226;1.05;-0.7938486;1.148634;0.5785087;2.18944;0.4015063;2.158472;
637945298609262152;1117.835;7;2;2;0.6;1.8;700;2.85714285714286;0.8863269;1.656283;0.8540925;1.705271;-0.7794226;1.05;-0.7938486;1.148634;
637945298623245315;1119.234;7;2;2;0.6;1.8;1399;1.42959256611866;-0.8863271;1.656283;-0.9474702;1.790707;0.8863269;1.656283;0.8540925;1.705271;
637945298632247350;1120.134;7;2;2;0.6;1.8;900;2.22222222222222;0.779423;1.05;0.6411141;1.149417;-0.8863271;1.656283;-0.9474702;1.790707;
637945298641239384;1121.033;7;2;2;0.6;1.8;899;2.22469410456062;-0.5785094;2.18944;-0.5568147;2.139227;0.779423;1.05;0.6411141;1.149417;
637945298651241640;1122.033;7;2;2;0.6;1.8;1000;2;0.3078185;0.6542768;0.4219258;0.8031536;-0.5785094;2.18944;-0.5568147;2.139227;
637945299243628905;1181.272;7;3;1.5;1.1;2;811;1.84956843403206;-0.3420197;0.5603072;-0.4273351;0.9238126;0;2.5;0.07593356;2.36584;
637945299252620931;1182.172;7;3;1.5;1.1;2;899;1.66852057842047;0.6427875;2.266045;0.3569975;2.237811;-0.3420197;0.5603072;-0.4273351;0.9238126;
637945299260617707;1182.971;7;3;1.5;1.1;2;800;1.875;-0.8660251;0.9999995;-0.8627201;1.292191;0.6427875;2.266045;0.3569975;2.237811;
637945299268618852;1183.771;7;3;1.5;1.1;2;800;1.875;0.9848077;1.673648;0.6975996;1.930565;-0.8660251;0.9999995;-0.8627201;1.292191;
637945299275621584;1184.471;7;3;1.5;1.1;2;700;2.14285714285714;-0.9848078;1.673648;-0.815773;1.869379;0.9848077;1.673648;0.6975996;1.930565;
637945299284613618;1185.37;7;3;1.5;1.1;2;899;1.66852057842047;0.8660256;1;0.7694155;1.417624;-0.9848078;1.673648;-0.815773;1.869379;
637945299292615427;1186.17;7;3;1.5;1.1;2;800;1.875;-0.6427882;2.266044;-0.671277;2.142505;0.8660256;1;0.7694155;1.417624;
637945299315600627;1188.469;7;3;1.5;1.1;2;2299;0.652457590256633;0.3420205;0.5603075;0.4059942;0.6942406;-0.6427882;2.266044;-0.671277;2.142505;
637945299355689693;1192.478;7;3;4.5;0.1;2.2;2210;2.03619909502262;-0.3762217;0.4663379;-0.3535526;0.50124;0;2.6;-0.003643403;2.610689;
637945299376674433;1194.577;7;3;4.5;0.1;2.2;2099;2.14387803716055;0.7070663;2.342649;0.6823187;2.330507;-0.3762217;0.4663379;-0.3535526;0.50124;
637945299411662352;1198.076;7;3;4.5;0.1;2.2;3499;1.28608173763933;-0.9526277;0.9499994;-0.9762374;0.9915164;0.7070663;2.342649;0.6823187;2.330507;
637945299431646874;1200.074;7;3;4.5;0.1;2.2;1999;2.25112556278139;1.083289;1.691013;1.078466;1.676251;-0.9526277;0.9499994;-0.9762374;0.9915164;
637945299452651622;1202.174;7;3;4.5;0.1;2.2;2099;2.14387803716055;-1.083289;1.691012;-1.037519;1.697235;1.083289;1.691013;1.078466;1.676251;
637945299481878233;1205.103;7;3;4.5;0.1;2.2;2929;1.53636053260498;0.9526281;0.9500003;0.9599315;0.9146637;-1.083289;1.691012;-1.037519;1.697235;
637945299502642928;1207.171;7;3;4.5;0.1;2.2;2069;2.17496375060416;-0.7070671;2.342648;-0.6691275;2.356282;0.9526281;0.9500003;0.9599315;0.9146637;
637945299524717922;1209.381;7;3;4.5;0.1;2.2;2210;2.03619909502262;0.3762226;0.4663382;0.3736535;0.4912963;-0.7070671;2.342648;-0.6691275;2.356282;
637945299541711766;1211.081;7;3;2.5;0.3;1.4;800;3.125;-0.2394138;0.8422151;-0.1730766;0.8500665;0;2.2;-0.01095435;2.167567;
637945299548713347;1211.78;7;3;2.5;0.3;1.4;700;3.57142857142857;0.4499513;2.036231;0.4469732;2.155307;-0.2394138;0.8422151;-0.1730766;0.8500665;
637945299557705382;1212.68;7;3;2.5;0.3;1.4;900;2.77777777777778;-0.6062176;1.15;-0.5799208;1.196748;0.4499513;2.036231;0.4469732;2.155307;
637945299576699677;1214.579;7;3;2.5;0.3;1.4;1899;1.31648235913639;0.6893654;1.621554;0.6668049;1.632298;-0.6062176;1.15;-0.5799208;1.196748;
637945299586691938;1215.578;7;3;2.5;0.3;1.4;999;2.5025025025025;-0.6893655;1.621553;-0.6425883;1.64767;0.6893654;1.621554;0.6668049;1.632298;
637945299597685274;1216.678;7;3;2.5;0.3;1.4;1099;2.27479526842584;0.6062179;1.15;0.6558248;1.235368;-0.6893655;1.621553;-0.6425883;1.64767;
637945299606692570;1217.578;7;3;2.5;0.3;1.4;900;2.77777777777778;-0.4499517;2.036231;-0.4551429;2.026937;0.6062179;1.15;0.6558248;1.235368;
637945299617675044;1218.677;7;3;2.5;0.3;1.4;1099;2.27479526842584;0.2394144;0.8422153;0.2842006;0.9288859;-0.4499517;2.036231;-0.4551429;2.026937;
637945299644669153;1221.376;7;3;3;0.2;1.4;1699;1.76574455562095;-0.2394138;0.8422151;-0.1800053;0.8859993;0;2.2;0.02450433;2.125487;
637945299657766780;1222.686;7;3;3;0.2;1.4;1311;2.2883295194508;0.4499513;2.036231;0.4367285;2.00878;-0.2394138;0.8422151;-0.1800053;0.8859993;
637945299671768043;1224.086;7;3;3;0.2;1.4;1399;2.14438884917798;-0.6062176;1.15;-0.5578404;1.179749;0.4499513;2.036231;0.4367285;2.00878;
637945299680756340;1224.985;7;3;3;0.2;1.4;899;3.33704115684093;0.6893654;1.621554;0.6799362;1.658073;-0.6062176;1.15;-0.5578404;1.179749;
637945299703754786;1227.284;7;3;3;0.2;1.4;2299;1.30491518051327;-0.6893655;1.621553;-0.6767796;1.626342;0.6893654;1.621554;0.6799362;1.658073;
637945299714747272;1228.383;7;3;3;0.2;1.4;1099;2.72975432211101;0.6062179;1.15;0.5947066;1.162898;-0.6893655;1.621553;-0.6767796;1.626342;
637945299726739987;1229.583;7;3;3;0.2;1.4;1200;2.5;-0.4499517;2.036231;-0.4077187;1.995089;0.6062179;1.15;0.5947066;1.162898;
637945299745724275;1231.482;7;3;3;0.2;1.4;1899;1.57977883096367;0.2394144;0.8422153;0.2716418;0.8132325;-0.4499517;2.036231;-0.4077187;1.995089;
637945299769719705;1233.881;7;3;2;0.6;1.8;1399;1.42959256611866;-0.3078177;0.6542765;-0.3175015;0.6569304;0;2.4;0.02450734;2.263013;
637945299779711970;1234.881;7;3;2;0.6;1.8;1000;2;0.5785087;2.18944;0.4769325;2.181494;-0.3078177;0.6542765;-0.3175015;0.6569304;
637945299788824025;1235.791;7;3;2;0.6;1.8;911;2.1953896816685;-0.7794226;1.05;-0.7726422;1.111301;0.5785087;2.18944;0.4769325;2.181494;
637945299797816060;1236.691;7;3;2;0.6;1.8;900;2.22222222222222;0.8863269;1.656283;0.7876388;1.706529;-0.7794226;1.05;-0.7726422;1.111301;
637945299811809226;1238.09;7;3;2;0.6;1.8;1399;1.42959256611866;-0.8863271;1.656283;-0.6611196;1.647661;0.8863269;1.656283;0.7876388;1.706529;
637945299835794643;1240.489;7;3;2;0.6;1.8;2399;0.833680700291788;0.779423;1.05;0.7940132;1.036551;-0.8863271;1.656283;-0.6611196;1.647661;
637945299847797364;1241.688;7;3;2;0.6;1.8;1199;1.66805671392827;-0.5785094;2.18944;-0.4755165;2.200224;0.779423;1.05;0.7940132;1.036551;
637945299859790076;1242.888;7;3;2;0.6;1.8;1200;1.66666666666667;0.3078185;0.6542768;0.3690275;0.7707609;-0.5785094;2.18944;-0.4755165;2.200224;
637945299889776858;1245.886;7;3;3.5;0.2;2;1899;1.84307530279094;-0.3420197;0.5603072;-0.2845756;0.635895;0;2.5;-0.001184797;2.509896;
637945299900769344;1246.986;7;3;3.5;0.2;2;1099;3.18471337579618;0.6427875;2.266045;0.6259073;2.234202;-0.3420197;0.5603072;-0.2845756;0.635895;
637945299913762282;1248.286;7;3;3.5;0.2;2;1300;2.69230769230769;-0.8660251;0.9999995;-0.8306568;1.061318;0.6427875;2.266045;0.6259073;2.234202;
637945299932866603;1250.196;7;3;3.5;0.2;2;1910;1.83246073298429;0.9848077;1.673648;1.007088;1.679695;-0.8660251;0.9999995;-0.8306568;1.061318;
637945299945861878;1251.495;7;3;3.5;0.2;2;1299;2.69438029253272;-0.9848078;1.673648;-0.9376896;1.676059;0.9848077;1.673648;1.007088;1.679695;
637945299957854591;1252.694;7;3;3.5;0.2;2;1199;2.91909924937448;0.8660256;1;0.8952661;1.026077;-0.9848078;1.673648;-0.9376896;1.676059;
637945299975848660;1254.494;7;3;3.5;0.2;2;1799;1.94552529182879;-0.6427882;2.266044;-0.5798374;2.239719;0.8660256;1;0.8952661;1.026077;
637945299990832841;1255.993;7;3;3.5;0.2;2;1499;2.33488992661775;0.3420205;0.5603075;0.3390345;0.5425168;-0.6427882;2.266044;-0.5798374;2.239719;
637945300047807590;1261.69;7;3;4;0.1;1.4;3498;1.14351057747284;-0.2394138;0.8422151;-0.2227809;0.8743151;0;2.2;0.01309569;2.196796;
637945300078794601;1264.789;7;3;4;0.1;1.4;3098;1.2911555842479;0.4499513;2.036231;0.486368;2.027408;-0.2394138;0.8422151;-0.2227809;0.8743151;
637945300099909375;1266.899;7;3;4;0.1;1.4;2110;1.8957345971564;-0.6062176;1.15;-0.5882835;1.151008;0.4499513;2.036231;0.486368;2.027408;
637945300117893441;1268.698;7;3;4;0.1;1.4;1799;2.22345747637576;0.6893654;1.621554;0.6995167;1.642285;-0.6062176;1.15;-0.5882835;1.151008;
637945300133887058;1270.297;7;3;4;0.1;1.4;1599;2.50156347717323;-0.6893655;1.621553;-0.6540442;1.634427;0.6893654;1.621554;0.6995167;1.642285;
637945300166864513;1273.596;7;3;4;0.1;1.4;3298;1.21285627653123;0.6062179;1.15;0.6231479;1.177248;-0.6893655;1.621553;-0.6540442;1.634427;
637945300186128877;1275.53;7;3;4;0.1;1.4;1934;2.06825232678387;-0.4499517;2.036231;-0.4045879;2.057242;0.6062179;1.15;0.6231479;1.177248;
637945300204853107;1277.394;7;3;4;0.1;1.4;1864;2.14592274678112;0.2394144;0.8422153;0.2438367;0.8398345;-0.4499517;2.036231;-0.4045879;2.057242;
637945301230158343;1379.924;7;4;3.5;0.2;2;1299;2.69438029253272;-0.3420197;0.5603072;-0.3041343;0.6487838;0;2.5;-0.001997331;2.459434;
637945301243251305;1381.235;7;4;3.5;0.2;2;1310;2.67175572519084;0.6427875;2.266045;0.6202488;2.223783;-0.3420197;0.5603072;-0.3041343;0.6487838;
637945301254253795;1382.335;7;4;3.5;0.2;2;1100;3.18181818181818;-0.8660251;0.9999995;-0.7997289;0.9945302;0.6427875;2.266045;0.6202488;2.223783;
637945301264246053;1383.334;7;4;3.5;0.2;2;999;3.5035035035035;0.9848077;1.673648;0.909235;1.708539;-0.8660251;0.9999995;-0.7997289;0.9945302;
637945301281239900;1385.033;7;4;3.5;0.2;2;1699;2.06003531489111;-0.9848078;1.673648;-0.9276756;1.663586;0.9848077;1.673648;0.909235;1.708539;
637945301292232383;1386.133;7;4;3.5;0.2;2;1099;3.18471337579618;0.8660256;1;0.9123141;1.042992;-0.9848078;1.673648;-0.9276756;1.663586;
637945301302234644;1387.132;7;4;3.5;0.2;2;1000;3.5;-0.6427882;2.266044;-0.5877082;2.269572;0.8660256;1;0.9123141;1.042992;
637945301320328739;1388.943;7;4;3.5;0.2;2;1810;1.93370165745856;0.3420205;0.5603075;0.3889799;0.6032045;-0.6427882;2.266044;-0.5877082;2.269572;
637945301345324390;1391.441;7;4;4;0.1;1.4;1200;3.33333333333333;-0.2394138;0.8422151;-0.2444219;0.8835247;0;2.2;0.01832408;2.157432;
637945301355316651;1392.441;7;4;4;0.1;1.4;999;4.004004004004;0.4499513;2.036231;0.4229038;2.066647;-0.2394138;0.8422151;-0.2444219;0.8835247;
637945301367309356;1393.64;7;4;4;0.1;1.4;1200;3.33333333333333;-0.6062176;1.15;-0.595766;1.146346;0.4499513;2.036231;0.4229038;2.066647;
637945301390304563;1395.939;7;4;4;0.1;1.4;2299;1.73988690735102;0.6893654;1.621554;0.6818339;1.619702;-0.6062176;1.15;-0.595766;1.146346;
637945301403297502;1397.239;7;4;4;0.1;1.4;1299;3.07929176289453;-0.6893655;1.621553;-0.680985;1.641277;0.6893654;1.621554;0.6818339;1.619702;
637945301416290441;1398.538;7;4;4;0.1;1.4;1299;3.07929176289453;0.6062179;1.15;0.5778819;1.182848;-0.6893655;1.621553;-0.680985;1.641277;
637945301446277222;1401.537;7;4;4;0.1;1.4;2999;1.33377792597533;-0.4499517;2.036231;-0.4460736;2.029195;0.6062179;1.15;0.5778819;1.182848;
637945301464381317;1403.347;7;4;4;0.1;1.4;1810;2.20994475138122;0.2394144;0.8422153;0.2494918;0.8829254;-0.4499517;2.036231;-0.4460736;2.029195;
637945301481375161;1405.046;7;4;1.5;1.1;2;800;1.875;-0.3420197;0.5603072;-0.2042683;1.082323;0;2.5;0.02459436;2.257045;
637945301489366968;1405.846;7;4;1.5;1.1;2;800;1.875;0.6427875;2.266045;0.3443916;2.109892;-0.3420197;0.5603072;-0.2042683;1.082323;
637945301506357810;1407.545;7;4;1.5;1.1;2;1699;0.882872277810477;-0.8660251;0.9999995;-0.5358535;1.210498;0.6427875;2.266045;0.3443916;2.109892;
637945301512359167;1408.145;7;4;1.5;1.1;2;600;2.5;0.9848077;1.673648;0.7872645;1.711943;-0.8660251;0.9999995;-0.5358535;1.210498;
637945301519350748;1408.845;7;4;1.5;1.1;2;700;2.14285714285714;-0.9848078;1.673648;-0.7156891;1.821586;0.9848077;1.673648;0.7872645;1.711943;
637945301526354561;1409.544;7;4;1.5;1.1;2;699;2.14592274678112;0.8660256;1;0.673102;1.395234;-0.9848078;1.673648;-0.7156891;1.821586;
637945301531352414;1410.044;7;4;1.5;1.1;2;500;3;-0.6427882;2.266044;-0.6958339;2.013513;0.8660256;1;0.673102;1.395234;
637945301540340893;1410.943;7;4;1.5;1.1;2;899;1.66852057842047;0.3420205;0.5603075;0.4329515;0.9759829;-0.6427882;2.266044;-0.6958339;2.013513;
637945301566337363;1413.543;7;4;3;0.2;1.4;1700;1.76470588235294;-0.2394138;0.8422151;-0.2173093;0.8430945;0;2.2;0.02650916;2.280199;
637945301585428920;1415.453;7;4;3;0.2;1.4;1910;1.57068062827225;0.4499513;2.036231;0.4187043;1.983654;-0.2394138;0.8422151;-0.2173093;0.8430945;
637945301595429607;1416.452;7;4;3;0.2;1.4;1000;3;-0.6062176;1.15;-0.5801982;1.177332;0.4499513;2.036231;0.4187043;1.983654;
637945301604421641;1417.352;7;4;3;0.2;1.4;900;3.33333333333333;0.6893654;1.621554;0.6860158;1.664203;-0.6062176;1.15;-0.5801982;1.177332;
637945301614423901;1418.351;7;4;3;0.2;1.4;999;3.003003003003;-0.6893655;1.621553;-0.6564797;1.62814;0.6893654;1.621554;0.6860158;1.664203;
637945301625416387;1419.451;7;4;3;0.2;1.4;1100;2.72727272727273;0.6062179;1.15;0.6455566;1.181982;-0.6893655;1.621553;-0.6564797;1.62814;
637945301635408646;1420.45;7;4;3;0.2;1.4;999;3.003003003003;-0.4499517;2.036231;-0.4384299;2.048947;0.6062179;1.15;0.6455566;1.181982;
637945301646401134;1421.55;7;4;3;0.2;1.4;1099;2.72975432211101;0.2394144;0.8422153;0.2330614;0.842051;-0.4499517;2.036231;-0.4384299;2.048947;
637945301665395429;1423.449;7;4;2;0.6;1.8;999;2.002002002002;-0.3078177;0.6542765;-0.2169801;0.8584636;0;2.4;0.0607982;2.437407;
637945301673397238;1424.248;7;4;2;0.6;1.8;800;2.5;0.5785087;2.18944;0.535866;2.049072;-0.3078177;0.6542765;-0.2169801;0.8584636;
637945301690381081;1425.948;7;4;2;0.6;1.8;1699;1.17716303708064;-0.7794226;1.05;-0.5825411;1.129378;0.5785087;2.18944;0.535866;2.049072;
637945301698382889;1426.747;7;4;2;0.6;1.8;800;2.5;0.8863269;1.656283;0.72461;1.682533;-0.7794226;1.05;-0.5825411;1.129378;
637945301706384699;1427.547;7;4;2;0.6;1.8;800;2.5;-0.8863271;1.656283;-0.7068216;1.631898;0.8863269;1.656283;0.72461;1.682533;
637945301715486758;1428.458;7;4;2;0.6;1.8;911;2.1953896816685;0.779423;1.05;0.6889008;1.278453;-0.8863271;1.656283;-0.7068216;1.631898;
637945301724478791;1429.357;7;4;2;0.6;1.8;899;2.22469410456062;-0.5785094;2.18944;-0.5075244;2.170606;0.779423;1.05;0.6889008;1.278453;
637945301736471503;1430.557;7;4;2;0.6;1.8;1199;1.66805671392827;0.3078185;0.6542768;0.3141015;0.941496;-0.5785094;2.18944;-0.5075244;2.170606;
637945301757466252;1432.656;7;4;2.5;0.3;1.4;1099;2.27479526842584;-0.2394138;0.8422151;-0.2164804;0.9769111;0;2.2;0.02580819;2.1906;
637945301766458279;1433.555;7;4;2.5;0.3;1.4;900;2.77777777777778;0.4499513;2.036231;0.5130342;2.015569;-0.2394138;0.8422151;-0.2164804;0.9769111;
637945301776450551;1434.555;7;4;2.5;0.3;1.4;999;2.5025025025025;-0.6062176;1.15;-0.6152054;1.15433;0.4499513;2.036231;0.5130342;2.015569;
637945301792444164;1436.154;7;4;2.5;0.3;1.4;1599;1.56347717323327;0.6893654;1.621554;0.6117633;1.621274;-0.6062176;1.15;-0.6152054;1.15433;
637945301800445973;1436.954;7;4;2.5;0.3;1.4;800;3.125;-0.6893655;1.621553;-0.6345748;1.659807;0.6893654;1.621554;0.6117633;1.621274;
637945301816439590;1438.553;7;4;2.5;0.3;1.4;1599;1.56347717323327;0.6062179;1.15;0.5262531;1.215231;-0.6893655;1.621553;-0.6345748;1.659807;
637945301825431622;1439.453;7;4;2.5;0.3;1.4;900;2.77777777777778;-0.4499517;2.036231;-0.4810225;2.001952;0.6062179;1.15;0.5262531;1.215231;
637945301837424335;1440.652;7;4;2.5;0.3;1.4;1199;2.08507089241034;0.2394144;0.8422153;0.2274443;0.8639457;-0.4499517;2.036231;-0.4810225;2.001952;
637945301870516744;1443.961;7;4;4.5;0.1;2.2;2010;2.23880597014925;-0.3762217;0.4663379;-0.3634457;0.4737055;0;2.6;0.01517334;2.599313;
637945301899507212;1446.86;7;4;4.5;0.1;2.2;2899;1.55225939979303;0.7070663;2.342649;0.6896275;2.370331;-0.3762217;0.4663379;-0.3634457;0.4737055;
637945301922497771;1449.159;7;4;4.5;0.1;2.2;2299;1.9573727707699;-0.9526277;0.9499994;-0.9279789;0.9406736;0.7070663;2.342649;0.6896275;2.370331;
637945301940487236;1450.958;7;4;4.5;0.1;2.2;1799;2.50138966092273;1.083289;1.691013;1.104264;1.704312;-0.9526277;0.9499994;-0.9279789;0.9406736;
637945301953482301;1452.258;7;4;4.5;0.1;2.2;1299;3.46420323325635;-1.083289;1.691012;-1.061897;1.667207;1.083289;1.691013;1.104264;1.704312;
637945301978477949;1454.757;7;4;4.5;0.1;2.2;2499;1.80072028811525;0.9526281;0.9500003;0.9466529;0.9093863;-1.083289;1.691012;-1.061897;1.667207;
637945301991470882;1456.056;7;4;4.5;0.1;2.2;1299;3.46420323325635;-0.7070671;2.342648;-0.6837166;2.301342;0.9526281;0.9500003;0.9466529;0.9093863;
637945302018567016;1458.766;7;4;4.5;0.1;2.2;2710;1.66051660516605;0.3762226;0.4663382;0.376857;0.4857377;-0.7070671;2.342648;-0.6837166;2.301342;
637945302408724181;1497.781;7;5;2;0.6;1.8;999;2.002002002002;-0.3078177;0.6542765;-0.3122885;0.9022522;0;2.4;0.04912792;2.216219;
637945302418716443;1498.781;7;5;2;0.6;1.8;1000;2;0.5785087;2.18944;0.3919215;2.165121;-0.3078177;0.6542765;-0.3122885;0.9022522;
637945302428708703;1499.78;7;5;2;0.6;1.8;999;2.002002002002;-0.7794226;1.05;-0.681061;1.156143;0.5785087;2.18944;0.3919215;2.165121;
637945302436710517;1500.58;7;5;2;0.6;1.8;800;2.5;0.8863269;1.656283;0.809735;1.673398;-0.7794226;1.05;-0.681061;1.156143;
637945302443702096;1501.28;7;5;2;0.6;1.8;700;2.85714285714286;-0.8863271;1.656283;-0.8235242;1.650139;0.8863269;1.656283;0.809735;1.673398;
637945302451703897;1502.079;7;5;2;0.6;1.8;800;2.5;0.779423;1.05;0.8742525;1.109361;-0.8863271;1.656283;-0.8235242;1.650139;
637945302464696842;1503.379;7;5;2;0.6;1.8;1299;1.53964588144727;-0.5785094;2.18944;-0.453984;2.096996;0.779423;1.05;0.8742525;1.109361;
637945302479690226;1504.878;7;5;2;0.6;1.8;1499;1.33422281521014;0.3078185;0.6542768;0.3536329;0.7883211;-0.5785094;2.18944;-0.453984;2.096996;
637945302501675198;1507.077;7;5;2.5;0.3;1.4;1199;2.08507089241034;-0.2394138;0.8422151;-0.2131066;0.8948452;0;2.2;-0.0428253;2.11944;
637945302511667470;1508.076;7;5;2.5;0.3;1.4;1000;2.5;0.4499513;2.036231;0.3746036;1.994283;-0.2394138;0.8422151;-0.2131066;0.8948452;
637945302522669952;1509.176;7;5;2.5;0.3;1.4;1100;2.27272727272727;-0.6062176;1.15;-0.5616515;1.189373;0.4499513;2.036231;0.3746036;1.994283;
637945302531661981;1510.075;7;5;2.5;0.3;1.4;899;2.78086763070078;0.6893654;1.621554;0.6666065;1.653806;-0.6062176;1.15;-0.5616515;1.189373;
637945302540774047;1510.986;7;5;2.5;0.3;1.4;911;2.74423710208562;-0.6893655;1.621553;-0.5882017;1.619852;0.6893654;1.621554;0.6666065;1.653806;
637945302555767438;1512.485;7;5;2.5;0.3;1.4;1499;1.66777851901268;0.6062179;1.15;0.585084;1.195628;-0.6893655;1.621553;-0.5882017;1.619852;
637945302566759925;1513.585;7;5;2.5;0.3;1.4;1099;2.27479526842584;-0.4499517;2.036231;-0.4063171;2.00276;0.6062179;1.15;0.585084;1.195628;
637945302577752410;1514.685;7;5;2.5;0.3;1.4;1100;2.27272727272727;0.2394144;0.8422153;0.2347981;0.8716251;-0.4499517;2.036231;-0.4063171;2.00276;
637945302591745575;1516.084;7;5;1.5;1.1;2;700;2.14285714285714;-0.3420197;0.5603072;-0.2024849;0.9676609;0;2.5;0.01065135;2.282848;
637945302606738967;1517.583;7;5;1.5;1.1;2;1499;1.00066711140761;0.6427875;2.266045;0.3938013;2.141791;-0.3420197;0.5603072;-0.2024849;0.9676609;
637945302614740775;1518.383;7;5;1.5;1.1;2;800;1.875;-0.8660251;0.9999995;-0.5505492;1.254764;0.6427875;2.266045;0.3938013;2.141791;
637945302621734296;1519.083;7;5;1.5;1.1;2;700;2.14285714285714;0.9848077;1.673648;0.8043745;1.735445;-0.8660251;0.9999995;-0.5505492;1.254764;
637945302627724779;1519.682;7;5;1.5;1.1;2;599;2.50417362270451;-0.9848078;1.673648;-0.6765492;1.84352;0.9848077;1.673648;0.8043745;1.735445;
637945302633726129;1520.282;7;5;1.5;1.1;2;600;2.5;0.8660256;1;0.663103;1.221899;-0.9848078;1.673648;-0.6765492;1.84352;
637945302639717482;1520.881;7;5;1.5;1.1;2;599;2.50417362270451;-0.6427882;2.266044;-0.6572332;2.086499;0.8660256;1;0.663103;1.221899;
637945302646719067;1521.581;7;5;1.5;1.1;2;700;2.14285714285714;0.3420205;0.5603075;0.4455745;0.9291693;-0.6427882;2.266044;-0.6572332;2.086499;
637945302684699108;1525.38;7;5;3;0.2;1.4;1299;2.3094688221709;-0.2394138;0.8422151;-0.2042709;0.9156605;0;2.2;0.02220335;2.17485;
637945302693810250;1526.29;7;5;3;0.2;1.4;911;3.29308452250274;0.4499513;2.036231;0.4077389;2.052158;-0.2394138;0.8422151;-0.2042709;0.9156605;
637945302705801618;1527.49;7;5;3;0.2;1.4;1200;2.5;-0.6062176;1.15;-0.5595438;1.137535;0.4499513;2.036231;0.4077389;2.052158;
637945302724795912;1529.389;7;5;3;0.2;1.4;1899;1.57977883096367;0.6893654;1.621554;0.6592917;1.639256;-0.6062176;1.15;-0.5595438;1.137535;
637945302741789756;1531.088;7;5;3;0.2;1.4;1699;1.76574455562095;-0.6893655;1.621553;-0.6508145;1.640949;0.6893654;1.621554;0.6592917;1.639256;
637945302760784050;1532.987;7;5;3;0.2;1.4;1900;1.57894736842105;0.6062179;1.15;0.5933849;1.237448;-0.6893655;1.621553;-0.6508145;1.640949;
637945302768775859;1533.787;7;5;3;0.2;1.4;799;3.75469336670839;-0.4499517;2.036231;-0.4906838;2.005034;0.6062179;1.15;0.5933849;1.237448;
637945302778768120;1534.786;7;5;3;0.2;1.4;999;3.003003003003;0.2394144;0.8422153;0.2293624;0.9287189;-0.4499517;2.036231;-0.4906838;2.005034;
637945302812755809;1538.185;7;5;4.5;0.1;2.2;1400;3.21428571428571;-0.3762217;0.4663379;-0.3832327;0.5022531;0;2.6;-0.0290365;2.577707;
637945302824758521;1539.384;7;5;4.5;0.1;2.2;1200;3.75;0.7070663;2.342649;0.7201847;2.330994;-0.3762217;0.4663379;-0.3832327;0.5022531;
637945302848853968;1541.794;7;5;4.5;0.1;2.2;2410;1.86721991701245;-0.9526277;0.9499994;-0.9336515;0.9170836;0.7070663;2.342649;0.7201847;2.330994;
637945302860846682;1542.994;7;5;4.5;0.1;2.2;1200;3.75;1.083289;1.691013;1.056912;1.704105;-0.9526277;0.9499994;-0.9336515;0.9170836;
637945302889823236;1545.892;7;5;4.5;0.1;2.2;2899;1.55225939979303;-1.083289;1.691012;-1.034781;1.690911;1.083289;1.691013;1.056912;1.704105;
637945302910817983;1547.991;7;5;4.5;0.1;2.2;2099;2.14387803716055;0.9526281;0.9500003;0.9413323;0.9694646;-1.083289;1.691012;-1.034781;1.690911;
637945302946806124;1551.589;7;5;4.5;0.1;2.2;3598;1.25069483046137;-0.7070671;2.342648;-0.7024641;2.352089;0.9526281;0.9500003;0.9413323;0.9694646;
637945302960799287;1552.989;7;5;4.5;0.1;2.2;1399;3.21658327376698;0.3762226;0.4663382;0.3555802;0.5101216;-0.7070671;2.342648;-0.7024641;2.352089;
637945302979905111;1554.899;7;5;3.5;0.2;2;900;3.88888888888889;-0.3420197;0.5603072;-0.3738699;0.6337714;0;2.5;-0.002773836;2.513785;
637945302987897224;1555.699;7;5;3.5;0.2;2;800;4.375;0.6427875;2.266045;0.6465198;2.313129;-0.3420197;0.5603072;-0.3738699;0.6337714;
637945303006891520;1557.598;7;5;3.5;0.2;2;1899;1.84307530279094;-0.8660251;0.9999995;-0.8090387;1.036565;0.6427875;2.266045;0.6465198;2.313129;
637945303017884113;1558.697;7;5;3.5;0.2;2;1099;3.18471337579618;0.9848077;1.673648;0.949885;1.650472;-0.8660251;0.9999995;-0.8090387;1.036565;
637945303031875299;1560.097;7;5;3.5;0.2;2;1399;2.50178699070765;-0.9848078;1.673648;-0.9305127;1.640715;0.9848077;1.673648;0.949885;1.650472;
637945303042867785;1561.196;7;5;3.5;0.2;2;1100;3.18181818181818;0.8660256;1;0.8211236;1.031782;-0.9848078;1.673648;-0.9305127;1.640715;
637945303055870726;1562.496;7;5;3.5;0.2;2;1300;2.69230769230769;-0.6427882;2.266044;-0.6056229;2.194304;0.8660256;1;0.8211236;1.031782;
637945303073854788;1564.295;7;5;3.5;0.2;2;1799;1.94552529182879;0.3420205;0.5603075;0.3095086;0.6514411;-0.6427882;2.266044;-0.6056229;2.194304;
637945303125946575;1569.504;7;5;4;0.1;1.4;3210;1.24610591900312;-0.2394138;0.8422151;-0.2212971;0.8541194;0;2.2;-0.02205633;2.229411;
637945303144260717;1571.342;7;5;4;0.1;1.4;1839;2.17509516041327;0.4499513;2.036231;0.46505;1.992529;-0.2394138;0.8422151;-0.2212971;0.8541194;
637945303167926069;1573.702;7;5;4;0.1;1.4;2359;1.69563374311149;-0.6062176;1.15;-0.6126421;1.158728;0.4499513;2.036231;0.46505;1.992529;
637945303181919233;1575.101;7;5;4;0.1;1.4;1399;2.85918513223731;0.6893654;1.621554;0.654466;1.616311;-0.6062176;1.15;-0.6126421;1.158728;
637945303197232695;1576.64;7;5;4;0.1;1.4;1539;2.59909031838856;-0.6893655;1.621553;-0.6621484;1.584374;0.6893654;1.621554;0.654466;1.616311;
637945303215896914;1578.499;7;5;4;0.1;1.4;1859;2.15169445938677;0.6062179;1.15;0.6011432;1.14838;-0.6893655;1.621553;-0.6621484;1.584374;
637945303230160151;1579.932;7;5;4;0.1;1.4;1433;2.79134682484299;-0.4499517;2.036231;-0.4426164;1.992359;0.6062179;1.15;0.6011432;1.14838;
637945303241892794;1581.098;7;5;4;0.1;1.4;1166;3.43053173241852;0.2394144;0.8422153;0.2282102;0.8821158;-0.4499517;2.036231;-0.4426164;1.992359;
637945303701122111;1627.021;7;6;4;0.1;1.4;1499;2.66844563042028;-0.2394138;0.8422151;-0.2195593;0.8460462;0;2.2;-0.007238112;2.217242;
637945303714115050;1628.321;7;6;4;0.1;1.4;1300;3.07692307692308;0.4499513;2.036231;0.413141;2.009054;-0.2394138;0.8422151;-0.2195593;0.8460462;
637945303730105123;1629.92;7;6;4;0.1;1.4;1599;2.50156347717323;-0.6062176;1.15;-0.6130035;1.124152;0.4499513;2.036231;0.413141;2.009054;
637945303741107609;1631.019;7;6;4;0.1;1.4;1099;3.63967242948135;0.6893654;1.621554;0.6539878;1.641617;-0.6062176;1.15;-0.6130035;1.124152;
637945303760091905;1632.918;7;6;4;0.1;1.4;1899;2.10637177461822;-0.6893655;1.621553;-0.7161081;1.635207;0.6893654;1.621554;0.6539878;1.641617;
637945303771090205;1634.018;7;6;4;0.1;1.4;1100;3.63636363636364;0.6062179;1.15;0.6042473;1.185461;-0.6893655;1.621553;-0.7161081;1.635207;
637945303788191360;1635.728;7;6;4;0.1;1.4;1710;2.33918128654971;-0.4499517;2.036231;-0.4512753;2.057858;0.6062179;1.15;0.6042473;1.185461;
637945303800195578;1636.928;7;6;4;0.1;1.4;1200;3.33333333333333;0.2394144;0.8422153;0.2477999;0.8912145;-0.4499517;2.036231;-0.4512753;2.057858;
637945303813178516;1638.227;7;6;2;0.6;1.8;700;2.85714285714286;-0.3078177;0.6542765;-0.4256705;0.7880291;0;2.4;0.03767073;2.261255;
637945303819179871;1638.827;7;6;2;0.6;1.8;600;3.33333333333333;0.5785087;2.18944;0.620361;2.122276;-0.3078177;0.6542765;-0.4256705;0.7880291;
637945303827171684;1639.626;7;6;2;0.6;1.8;800;2.5;-0.7794226;1.05;-0.8470011;1.192407;0.5785087;2.18944;0.620361;2.122276;
637945303834173264;1640.326;7;6;2;0.6;1.8;700;2.85714285714286;0.8863269;1.656283;0.779124;1.724682;-0.7794226;1.05;-0.8470011;1.192407;
637945303840164619;1640.926;7;6;2;0.6;1.8;600;3.33333333333333;-0.8863271;1.656283;-0.7791678;1.665954;0.8863269;1.656283;0.779124;1.724682;
637945303846165976;1641.526;7;6;2;0.6;1.8;600;3.33333333333333;0.779423;1.05;0.690909;1.140235;-0.8863271;1.656283;-0.7791678;1.665954;
637945303853167560;1642.225;7;6;2;0.6;1.8;700;2.85714285714286;-0.5785094;2.18944;-0.5035383;2.205924;0.779423;1.05;0.690909;1.140235;
637945303861159367;1643.025;7;6;2;0.6;1.8;800;2.5;0.3078185;0.6542768;0.4752909;0.8219208;-0.5785094;2.18944;-0.5035383;2.205924;
637945303876152758;1644.524;7;6;3;0.2;1.4;800;3.75;-0.2394138;0.8422151;-0.1765863;0.9050813;0;2.2;-0.008854263;2.229124;
637945303884144565;1645.324;7;6;3;0.2;1.4;800;3.75;0.4499513;2.036231;0.4392869;2.07374;-0.2394138;0.8422151;-0.1765863;0.9050813;
637945303892146375;1646.124;7;6;3;0.2;1.4;800;3.75;-0.6062176;1.15;-0.5621625;1.171033;0.4499513;2.036231;0.4392869;2.07374;
637945303899137960;1646.823;7;6;3;0.2;1.4;700;4.28571428571429;0.6893654;1.621554;0.6808789;1.683707;-0.6062176;1.15;-0.5621625;1.171033;
637945303907139766;1647.623;7;6;3;0.2;1.4;800;3.75;-0.6893655;1.621553;-0.6507565;1.612614;0.6893654;1.621554;0.6808789;1.683707;
637945303915131569;1648.422;7;6;3;0.2;1.4;800;3.75;0.6062179;1.15;0.572056;1.201467;-0.6893655;1.621553;-0.6507565;1.612614;
637945303924553714;1649.372;7;6;3;0.2;1.4;950;3.15789473684211;-0.4499517;2.036231;-0.5224926;2.08394;0.6062179;1.15;0.572056;1.201467;
637945303944228155;1651.332;7;6;3;0.2;1.4;1960;1.53061224489796;0.2394144;0.8422153;0.3142816;0.8781672;-0.4499517;2.036231;-0.5224926;2.08394;
637945303979216068;1654.831;7;6;4.5;0.1;2.2;1899;2.3696682464455;-0.3762217;0.4663379;-0.3596582;0.4762357;0;2.6;0.01951601;2.555288;
637945303995239695;1656.433;7;6;4.5;0.1;2.2;1603;2.80723643169058;0.7070663;2.342649;0.6721931;2.314365;-0.3762217;0.4663379;-0.3596582;0.4762357;
637945304019465174;1658.863;7;6;4.5;0.1;2.2;2430;1.85185185185185;-0.9526277;0.9499994;-0.9437536;0.9221144;0.7070663;2.342649;0.6721931;2.314365;
637945304039299657;1660.839;7;6;4.5;0.1;2.2;1976;2.27732793522267;1.083289;1.691013;1.084481;1.696338;-0.9526277;0.9499994;-0.9437536;0.9221144;
637945304072287119;1664.137;7;6;4.5;0.1;2.2;3298;1.36446331109763;-1.083289;1.691012;-1.059802;1.651713;1.083289;1.691013;1.084481;1.696338;
637945304099271483;1666.836;7;6;4.5;0.1;2.2;2699;1.66728417932568;0.9526281;0.9500003;0.9732708;0.9508638;-1.083289;1.691012;-1.059802;1.651713;
637945304117369455;1668.646;7;6;4.5;0.1;2.2;1810;2.48618784530387;-0.7070671;2.342648;-0.687511;2.356974;0.9526281;0.9500003;0.9732708;0.9508638;
637945304133693140;1670.286;7;6;4.5;0.1;2.2;1639;2.74557657107993;0.3762226;0.4663382;0.3921129;0.5076038;-0.7070671;2.342648;-0.687511;2.356974;
637945304156350985;1672.545;7;6;1.5;1.1;2;1399;1.07219442458899;-0.3420197;0.5603072;-0.2034132;0.8045822;0;2.5;0.02240156;2.243122;
637945304164351897;1673.344;7;6;1.5;1.1;2;800;1.875;0.6427875;2.266045;0.4632132;2.039339;-0.3420197;0.5603072;-0.2034132;0.8045822;
637945304171346819;1674.044;7;6;1.5;1.1;2;700;2.14285714285714;-0.8660251;0.9999995;-0.5074748;1.232424;0.6427875;2.266045;0.4632132;2.039339;
637945304177348176;1674.644;7;6;1.5;1.1;2;600;2.5;0.9848077;1.673648;0.6743025;1.545912;-0.8660251;0.9999995;-0.5074748;1.232424;
637945304184339759;1675.343;7;6;1.5;1.1;2;700;2.14285714285714;-0.9848078;1.673648;-0.5712307;1.556784;0.9848077;1.673648;0.6743025;1.545912;
637945304191341340;1676.043;7;6;1.5;1.1;2;700;2.14285714285714;0.8660256;1;0.6306487;1.233985;-0.9848078;1.673648;-0.5712307;1.556784;
637945304197342695;1676.643;7;6;1.5;1.1;2;600;2.5;-0.6427882;2.266044;-0.5714033;2.01876;0.8660256;1;0.6306487;1.233985;
637945304205364515;1677.445;7;6;1.5;1.1;2;802;1.87032418952618;0.3420205;0.5603075;0.3098782;0.9895416;-0.6427882;2.266044;-0.5714033;2.01876;
637945304243423120;1681.252;7;6;3.5;0.2;2;2699;1.29677658391997;-0.3420197;0.5603072;-0.3274066;0.6080443;0;2.5;0.04106243;2.420257;
637945304260416963;1682.951;7;6;3.5;0.2;2;1699;2.06003531489111;0.6427875;2.266045;0.5828333;2.225917;-0.3420197;0.5603072;-0.3274066;0.6080443;
637945304273409901;1684.25;7;6;3.5;0.2;2;1299;2.69438029253272;-0.8660251;0.9999995;-0.8620315;0.9734932;0.6427875;2.266045;0.5828333;2.225917;
637945304284402382;1685.35;7;6;3.5;0.2;2;1099;3.18471337579618;0.9848077;1.673648;0.947307;1.687322;-0.8660251;0.9999995;-0.8620315;0.9734932;
637945304295404875;1686.449;7;6;3.5;0.2;2;1100;3.18181818181818;-0.9848078;1.673648;-0.9351907;1.670599;0.9848077;1.673648;0.947307;1.687322;
637945304305397136;1687.449;7;6;3.5;0.2;2;999;3.5035035035035;0.8660256;1;0.8341761;1.024596;-0.9848078;1.673648;-0.9351907;1.670599;
637945304315389390;1688.448;7;6;3.5;0.2;2;1000;3.5;-0.6427882;2.266044;-0.6027146;2.244045;0.8660256;1;0.8341761;1.024596;
637945304340375048;1690.947;7;6;3.5;0.2;2;2499;1.40056022408964;0.3420205;0.5603075;0.3326966;0.5411662;-0.6427882;2.266044;-0.6027146;2.244045;
637945304367371153;1693.646;7;6;2.5;0.3;1.4;1799;1.38966092273485;-0.2394138;0.8422151;-0.2183049;0.8849198;0;2.2;0.007631037;2.218512;
637945304381474342;1695.056;7;6;2.5;0.3;1.4;1410;1.77304964539007;0.4499513;2.036231;0.3982464;1.990728;-0.2394138;0.8422151;-0.2183049;0.8849198;
637945304389466151;1695.856;7;6;2.5;0.3;1.4;800;3.125;-0.6062176;1.15;-0.5851565;1.192892;0.4499513;2.036231;0.3982464;1.990728;
637945304397467960;1696.656;7;6;2.5;0.3;1.4;799;3.12891113892365;0.6893654;1.621554;0.6554807;1.62885;-0.6062176;1.15;-0.5851565;1.192892;
637945304404459542;1697.355;7;6;2.5;0.3;1.4;700;3.57142857142857;-0.6893655;1.621553;-0.5840443;1.589411;0.6893654;1.621554;0.6554807;1.62885;
637945304412461353;1698.155;7;6;2.5;0.3;1.4;800;3.125;0.6062179;1.15;0.6577754;1.16429;-0.6893655;1.621553;-0.5840443;1.589411;
637945304421453383;1699.055;7;6;2.5;0.3;1.4;900;2.77777777777778;-0.4499517;2.036231;-0.514402;2.029831;0.6062179;1.15;0.6577754;1.16429;
637945304437446999;1700.654;7;6;2.5;0.3;1.4;1599;1.56347717323327;0.2394144;0.8422153;0.2579875;0.7846427;-0.4499517;2.036231;-0.514402;2.029831;
637945304896582283;1746.566;7;7;2.5;0.3;1.4;800;3.125;-0.2394138;0.8422151;-0.2554119;0.8637527;0;2.2;-0.07269289;2.220714;
637945304905584320;1747.465;7;7;2.5;0.3;1.4;900;2.77777777777778;0.4499513;2.036231;0.4385298;2.099973;-0.2394138;0.8422151;-0.2554119;0.8637527;
637945304913684297;1748.276;7;7;2.5;0.3;1.4;811;3.0826140567201;-0.6062176;1.15;-0.6041799;1.198515;0.4499513;2.036231;0.4385298;2.099973;
637945304921686110;1749.076;7;7;2.5;0.3;1.4;800;3.125;0.6893654;1.621554;0.6447528;1.656382;-0.6062176;1.15;-0.6041799;1.198515;
637945304928677695;1749.775;7;7;2.5;0.3;1.4;700;3.57142857142857;-0.6893655;1.621553;-0.7317902;1.67477;0.6893654;1.621554;0.6447528;1.656382;
637945304936679503;1750.575;7;7;2.5;0.3;1.4;800;3.125;0.6062179;1.15;0.6564667;1.194915;-0.6893655;1.621553;-0.7317902;1.67477;
637945304950666719;1751.975;7;7;2.5;0.3;1.4;1399;1.78699070764832;-0.4499517;2.036231;-0.364988;1.93384;0.6062179;1.15;0.6564667;1.194915;
637945304958668528;1752.774;7;7;2.5;0.3;1.4;800;3.125;0.2394144;0.8422153;0.3098882;0.8931674;-0.4499517;2.036231;-0.364988;1.93384;
637945304991756007;1756.084;7;7;3.5;0.2;2;1399;2.50178699070765;-0.3420197;0.5603072;-0.3393046;0.5981902;0;2.5;-0.01175461;2.509266;
637945305002818511;1757.189;7;7;3.5;0.2;2;1105;3.16742081447964;0.6427875;2.266045;0.6428581;2.17521;-0.3420197;0.5603072;-0.3393046;0.5981902;
637945305012750757;1758.183;7;7;3.5;0.2;2;994;3.52112676056338;-0.8660251;0.9999995;-0.8022212;0.9942116;0.6427875;2.266045;0.6428581;2.17521;
637945305021862818;1759.094;7;7;3.5;0.2;2;911;3.84193194291987;0.9848077;1.673648;0.9461583;1.719091;-0.8660251;0.9999995;-0.8022212;0.9942116;
637945305042847566;1761.193;7;7;3.5;0.2;2;2099;1.66746069556932;-0.9848078;1.673648;-0.9873283;1.720579;0.9848077;1.673648;0.9461583;1.719091;
637945305053840051;1762.292;7;7;3.5;0.2;2;1099;3.18471337579618;0.8660256;1;0.8534189;0.944106;-0.9848078;1.673648;-0.9873283;1.720579;
637945305071834122;1764.091;7;7;3.5;0.2;2;1799;1.94552529182879;-0.6427882;2.266044;-0.5826295;2.289838;0.8660256;1;0.8534189;0.944106;
637945305082826611;1765.191;7;7;3.5;0.2;2;1100;3.18181818181818;0.3420205;0.5603075;0.379993;0.6472826;-0.6427882;2.266044;-0.5826295;2.289838;
637945305097829993;1766.69;7;7;1.5;1.1;2;700;2.14285714285714;-0.3420197;0.5603072;-0.2593073;1.013158;0;2.5;0.01923126;2.223747;
637945305103821356;1767.29;7;7;1.5;1.1;2;599;2.50417362270451;0.6427875;2.266045;0.5168466;2.264455;-0.3420197;0.5603072;-0.2593073;1.013158;
637945305111823165;1768.089;7;7;1.5;1.1;2;800;1.875;-0.8660251;0.9999995;-0.8498774;1.195683;0.6427875;2.266045;0.5168466;2.264455;
637945305118814747;1768.789;7;7;1.5;1.1;2;699;2.14592274678112;0.9848077;1.673648;0.8239719;1.860798;-0.8660251;0.9999995;-0.8498774;1.195683;
637945305126806556;1769.589;7;7;1.5;1.1;2;799;1.87734668335419;-0.9848078;1.673648;-0.757275;1.948734;0.9848077;1.673648;0.8239719;1.860798;
637945305133808139;1770.288;7;7;1.5;1.1;2;700;2.14285714285714;0.8660256;1;0.623698;1.257868;-0.9848078;1.673648;-0.757275;1.948734;
637945305141799945;1771.088;7;7;1.5;1.1;2;800;1.875;-0.6427882;2.266044;-0.6323357;2.184881;0.8660256;1;0.623698;1.257868;
637945305150791978;1771.987;7;7;1.5;1.1;2;900;1.66666666666667;0.3420205;0.5603075;0.4843881;1.019163;-0.6427882;2.266044;-0.6323357;2.184881;
637945305167895849;1773.698;7;7;2;0.6;1.8;1110;1.8018018018018;-0.3078177;0.6542765;-0.2412901;0.8964339;0;2.4;0.0320784;2.246076;
637945305174897431;1774.397;7;7;2;0.6;1.8;700;2.85714285714286;0.5785087;2.18944;0.5780643;2.047848;-0.3078177;0.6542765;-0.2412901;0.8964339;
637945305182889235;1775.197;7;7;2;0.6;1.8;800;2.5;-0.7794226;1.05;-0.6943434;1.194045;0.5785087;2.18944;0.5780643;2.047848;
637945305189010620;1775.808;7;7;2;0.6;1.8;611;3.27332242225859;0.8863269;1.656283;0.778057;1.576585;-0.7794226;1.05;-0.6943434;1.194045;
637945305196892403;1776.597;7;7;2;0.6;1.8;789;2.53485424588086;-0.8863271;1.656283;-0.7894879;1.566079;0.8863269;1.656283;0.778057;1.576585;
637945305203883984;1777.296;7;7;2;0.6;1.8;699;2.86123032904149;0.779423;1.05;0.790569;1.157937;-0.8863271;1.656283;-0.7894879;1.566079;
637945305210885566;1777.996;7;7;2;0.6;1.8;700;2.85714285714286;-0.5785094;2.18944;-0.7175749;2.212856;0.779423;1.05;0.790569;1.157937;
637945305217877144;1778.695;7;7;2;0.6;1.8;700;2.85714285714286;0.3078185;0.6542768;0.4116504;0.8367538;-0.5785094;2.18944;-0.7175749;2.212856;
637945305234870995;1780.395;7;7;3;0.2;1.4;900;3.33333333333333;-0.2394138;0.8422151;-0.1831098;0.8988941;0;2.2;0.0463063;2.117145;
637945305244878549;1781.395;7;7;3;0.2;1.4;1000;3;0.4499513;2.036231;0.4382741;2.009565;-0.2394138;0.8422151;-0.1831098;0.8988941;
637945305261157209;1783.031;7;7;3;0.2;1.4;1636;1.83374083129584;-0.6062176;1.15;-0.5090656;1.12694;0.4499513;2.036231;0.4382741;2.009565;
637945305271849680;1784.093;7;7;3;0.2;1.4;1062;2.82485875706215;0.6893654;1.621554;0.6120971;1.630053;-0.6062176;1.15;-0.5090656;1.12694;
637945305281851942;1785.093;7;7;3;0.2;1.4;1000;3;-0.6893655;1.621553;-0.6235093;1.548622;0.6893654;1.621554;0.6120971;1.630053;
637945305290843975;1785.992;7;7;3;0.2;1.4;900;3.33333333333333;0.6062179;1.15;0.5636748;1.187113;-0.6893655;1.621553;-0.6235093;1.548622;
637945305298835783;1786.792;7;7;3;0.2;1.4;800;3.75;-0.4499517;2.036231;-0.4365387;2.109459;0.6062179;1.15;0.5636748;1.187113;
637945305307949818;1787.702;7;7;3;0.2;1.4;911;3.29308452250274;0.2394144;0.8422153;0.2337924;0.8858989;-0.4499517;2.036231;-0.4365387;2.109459;
637945305332938380;1790.201;7;7;4;0.1;1.4;1299;3.07929176289453;-0.2394138;0.8422151;-0.243934;0.8784616;0;2.2;0.01541178;2.165225;
637945305344300957;1791.345;7;7;4;0.1;1.4;1144;3.4965034965035;0.4499513;2.036231;0.4588786;2.078806;-0.2394138;0.8422151;-0.243934;0.8784616;
637945305367916295;1793.7;7;7;4;0.1;1.4;2354;1.69923534409516;-0.6062176;1.15;-0.5768164;1.190363;0.4499513;2.036231;0.4588786;2.078806;
637945305397903077;1796.698;7;7;4;0.1;1.4;2999;1.33377792597533;0.6893654;1.621554;0.6832001;1.645139;-0.6062176;1.15;-0.5768164;1.190363;
637945305421898504;1799.097;7;7;4;0.1;1.4;2399;1.66736140058358;-0.6893655;1.621553;-0.6862987;1.636778;0.6893654;1.621554;0.6832001;1.645139;
637945305436881894;1800.596;7;7;4;0.1;1.4;1499;2.66844563042028;0.6062179;1.15;0.5756179;1.161286;-0.6893655;1.621553;-0.6862987;1.636778;
637945305456986442;1802.607;7;7;4;0.1;1.4;2010;1.99004975124378;-0.4499517;2.036231;-0.4400166;2.038583;0.6062179;1.15;0.5756179;1.161286;
637945305478981415;1804.806;7;7;4;0.1;1.4;2199;1.81900864029104;0.2394144;0.8422153;0.2056407;0.8609315;-0.4499517;2.036231;-0.4400166;2.038583;
637945305514959549;1808.404;7;7;4.5;0.1;2.2;2199;2.04638472032742;-0.3762217;0.4663379;-0.3697281;0.514923;0;2.6;-0.002472686;2.628018;
637945305526952264;1809.604;7;7;4.5;0.1;2.2;1200;3.75;0.7070663;2.342649;0.691586;2.330387;-0.3762217;0.4663379;-0.3697281;0.514923;
637945305552948143;1812.202;7;7;4.5;0.1;2.2;2599;1.73143516737207;-0.9526277;0.9499994;-0.9293354;0.9486203;0.7070663;2.342649;0.691586;2.330387;
637945305565941081;1813.502;7;7;4.5;0.1;2.2;1300;3.46153846153846;1.083289;1.691013;1.08856;1.700975;-0.9526277;0.9499994;-0.9293354;0.9486203;
637945305592927185;1816.2;7;7;4.5;0.1;2.2;2699;1.66728417932568;-1.083289;1.691012;-1.063123;1.706643;1.083289;1.691013;1.08856;1.700975;
637945305604031924;1817.311;7;7;4.5;0.1;2.2;1111;4.05040504050405;0.9526281;0.9500003;0.918474;0.9603142;-1.083289;1.691012;-1.063123;1.706643;
637945305615027397;1818.41;7;7;4.5;0.1;2.2;1099;4.09463148316652;-0.7070671;2.342648;-0.7026464;2.329006;0.9526281;0.9500003;0.918474;0.9603142;
637945305629021543;1819.81;7;7;4.5;0.1;2.2;1399;3.21658327376698;0.3762226;0.4663382;0.4131331;0.4940982;-0.7070671;2.342648;-0.7026464;2.329006;
