637952910374101285;120.1242;10;0;2.5;0.3;1.4;600;4.16666666666667;-0.2394138;0.8422151;-0.1920897;0.8977852;0;2.2;0.0279617;2.153318;
637952910389193144;121.6347;10;0;2.5;0.3;1.4;1510;1.65562913907285;0.4499513;2.036231;0.3966229;2.008872;-0.2394138;0.8422151;-0.1920897;0.8977852;
637952910397194130;122.4341;10;0;2.5;0.3;1.4;799;3.12891113892365;-0.6062176;1.15;-0.5762757;1.219183;0.4499513;2.036231;0.3966229;2.008872;
637952910414186216;124.1335;10;0;2.5;0.3;1.4;1699;1.47145379635079;0.6893654;1.621554;0.6044294;1.608427;-0.6062176;1.15;-0.5762757;1.219183;
637952910419176831;124.6331;10;0;2.5;0.3;1.4;500;5;-0.6893655;1.621553;-0.6670034;1.699576;0.6893654;1.621554;0.6044294;1.608427;
637952910428167941;125.5327;10;0;2.5;0.3;1.4;900;2.77777777777778;0.6062179;1.15;0.524885;1.162356;-0.6893655;1.621553;-0.6670034;1.699576;
637952910437159045;126.4322;10;0;2.5;0.3;1.4;899;2.78086763070078;-0.4499517;2.036231;-0.4177528;1.979795;0.6062179;1.15;0.524885;1.162356;
637952910446160151;127.3317;10;0;2.5;0.3;1.4;900;2.77777777777778;0.2394144;0.8422153;0.2041056;0.948879;-0.4499517;2.036231;-0.4177528;1.979795;
637952910463212254;129.031;10;0;2;0.6;1.8;900;2.22222222222222;-0.3078177;0.6542765;-0.3023359;0.7913502;0;2.4;0.02385629;2.246624;
637952910471143233;129.8307;10;0;2;0.6;1.8;800;2.5;0.5785087;2.18944;0.4976522;2.140289;-0.3078177;0.6542765;-0.3023359;0.7913502;
637952910479144211;130.6304;10;0;2;0.6;1.8;800;2.5;-0.7794226;1.05;-0.7123709;1.185572;0.5785087;2.18944;0.4976522;2.140289;
637952910487145194;131.4302;10;0;2;0.6;1.8;800;2.5;0.8863269;1.656283;0.9259883;1.562722;-0.7794226;1.05;-0.7123709;1.185572;
637952910495136180;132.2298;10;0;2;0.6;1.8;800;2.5;-0.8863271;1.656283;-0.9349426;1.710641;0.8863269;1.656283;0.9259883;1.562722;
637952910503137162;133.0295;10;0;2;0.6;1.8;800;2.5;0.779423;1.05;0.7855491;1.151265;-0.8863271;1.656283;-0.9349426;1.710641;
637952910508127775;133.5291;10;0;2;0.6;1.8;500;4;-0.5785094;2.18944;-0.4908128;1.912469;0.779423;1.05;0.7855491;1.151265;
637952910516168772;134.333;10;0;2;0.6;1.8;804;2.48756218905473;0.3078185;0.6542768;0.2108364;0.8323499;-0.5785094;2.18944;-0.4908128;1.912469;
637952910533110851;136.0278;10;0;3;0.2;1.4;900;3.33333333333333;-0.2394138;0.8422151;-0.2265115;0.8944703;0;2.2;-0.02219319;2.122643;
637952910543212096;137.0384;10;0;3;0.2;1.4;1011;2.9673590504451;0.4499513;2.036231;0.4129254;1.961487;-0.2394138;0.8422151;-0.2265115;0.8944703;
637952910554213968;138.1378;10;0;3;0.2;1.4;1099;2.72975432211101;-0.6062176;1.15;-0.5503228;1.224405;0.4499513;2.036231;0.4129254;1.961487;
637952910561204829;138.8374;10;0;3;0.2;1.4;700;4.28571428571429;0.6893654;1.621554;0.6448279;1.596503;-0.6062176;1.15;-0.5503228;1.224405;
637952910581197290;140.8369;10;0;3;0.2;1.4;2000;1.5;-0.6893655;1.621553;-0.5985681;1.593851;0.6893654;1.621554;0.6448279;1.596503;
637952910593193509;142.0361;10;0;3;0.2;1.4;1199;2.50208507089241;0.6062179;1.15;0.5634475;1.185839;-0.6893655;1.621553;-0.5985681;1.593851;
637952910602181944;142.9355;10;0;3;0.2;1.4;899;3.33704115684093;-0.4499517;2.036231;-0.4683039;2.01661;0.6062179;1.15;0.5634475;1.185839;
637952910621155227;144.8323;10;0;3;0.2;1.4;1897;1.58144438587243;0.2394144;0.8422153;0.181455;0.9020258;-0.4499517;2.036231;-0.4683039;2.01661;
637952910647158428;147.4335;10;0;4.5;0.1;2.2;1599;2.81425891181989;-0.3762217;0.4663379;-0.363748;0.4635923;0;2.6;0.01173325;2.63553;
637952910675141870;150.2323;10;0;4.5;0.1;2.2;2799;1.60771704180064;0.7070663;2.342649;0.7035419;2.361199;-0.3762217;0.4663379;-0.363748;0.4635923;
637952910693244095;152.0425;10;0;4.5;0.1;2.2;1810;2.48618784530387;-0.9526277;0.9499994;-0.936386;0.9363116;0.7070663;2.342649;0.7035419;2.361199;
637952910703235328;153.0423;10;0;4.5;0.1;2.2;1000;4.5;1.083289;1.691013;1.116245;1.716738;-0.9526277;0.9499994;-0.936386;0.9363116;
637952910715236803;154.2416;10;0;4.5;0.1;2.2;1199;3.75312760633862;-1.083289;1.691012;-1.034317;1.681377;1.083289;1.691013;1.116245;1.716738;
637952910732218893;155.9405;10;0;4.5;0.1;2.2;1699;2.64861683343143;0.9526281;0.9500003;0.9590624;0.9772681;-1.083289;1.691012;-1.034317;1.681377;
637952910767523238;159.4791;10;0;4.5;0.1;2.2;3539;1.27154563435999;-0.7070671;2.342648;-0.6801299;2.300808;0.9526281;0.9500003;0.9590624;0.9772681;
637952910783195165;161.0384;10;0;4.5;0.1;2.2;1559;2.88646568313021;0.3762226;0.4663382;0.4135639;0.4822177;-0.7070671;2.342648;-0.6801299;2.300808;
637952910805177869;163.2372;10;0;4;0.1;1.4;900;4.44444444444444;-0.2394138;0.8422151;-0.2627216;0.8386081;0;2.2;0.0158205;2.217395;
637952910818169469;164.5367;10;0;4;0.1;1.4;1300;3.07692307692308;0.4499513;2.036231;0.4205236;2.022128;-0.2394138;0.8422151;-0.2627216;0.8386081;
637952910835161560;166.2362;10;0;4;0.1;1.4;1699;2.35432607416127;-0.6062176;1.15;-0.595092;1.164531;0.4499513;2.036231;0.4205236;2.022128;
637952910843262555;167.0465;10;0;4;0.1;1.4;810;4.93827160493827;0.6893654;1.621554;0.6788344;1.589441;-0.6062176;1.15;-0.595092;1.164531;
637952910853263786;168.0461;10;0;4;0.1;1.4;1000;4;-0.6893655;1.621553;-0.6398898;1.628433;0.6893654;1.621554;0.6788344;1.589441;
637952910865255262;169.2458;10;0;4;0.1;1.4;1200;3.33333333333333;0.6062179;1.15;0.5878737;1.152665;-0.6893655;1.621553;-0.6398898;1.628433;
637952910883247477;171.0448;10;0;4;0.1;1.4;1799;2.22345747637576;-0.4499517;2.036231;-0.4306532;2.002486;0.6062179;1.15;0.5878737;1.152665;
637952910895233616;172.244;10;0;4;0.1;1.4;1199;3.33611342785655;0.2394144;0.8422153;0.2005907;0.8715067;-0.4499517;2.036231;-0.4306532;2.002486;
637952910911224243;173.8434;10;0;1.5;1.1;2;700;2.14285714285714;-0.3420197;0.5603072;-0.2906674;0.9523456;0;2.5;-0.02779525;2.309002;
637952910918230910;174.5435;10;0;1.5;1.1;2;700;2.14285714285714;0.6427875;2.266045;0.5084087;2.145457;-0.3420197;0.5603072;-0.2906674;0.9523456;
637952910924221654;175.1431;10;0;1.5;1.1;2;599;2.50417362270451;-0.8660251;0.9999995;-0.8420947;1.329819;0.6427875;2.266045;0.5084087;2.145457;
637952910932222636;175.9429;10;0;1.5;1.1;2;800;1.875;0.9848077;1.673648;0.7953951;1.702359;-0.8660251;0.9999995;-0.8420947;1.329819;
637952910939213498;176.6421;10;0;1.5;1.1;2;699;2.14592274678112;-0.9848078;1.673648;-0.7917364;1.76115;0.9848077;1.673648;0.7953951;1.702359;
637952910947214479;177.4421;10;0;1.5;1.1;2;800;1.875;0.8660256;1;0.6679526;1.265222;-0.9848078;1.673648;-0.7917364;1.76115;
637952910963206064;179.041;10;0;1.5;1.1;2;1599;0.938086303939963;-0.6427882;2.266044;-0.4766361;2.164713;0.8660256;1;0.6679526;1.265222;
637952910972197176;179.9406;10;0;1.5;1.1;2;900;1.66666666666667;0.3420205;0.5603075;0.2707806;0.9739139;-0.6427882;2.266044;-0.4766361;2.164713;
637952911000291321;182.7506;10;0;3.5;0.2;2;1299;2.69438029253272;-0.3420197;0.5603072;-0.3230619;0.5764766;0;2.5;-0.02254009;2.453391;
637952911011278639;183.8499;10;0;3.5;0.2;2;1099;3.18471337579618;0.6427875;2.266045;0.5728049;2.226203;-0.3420197;0.5603072;-0.3230619;0.5764766;
637952911022279436;184.9493;10;0;3.5;0.2;2;1099;3.18471337579618;-0.8660251;0.9999995;-0.8541932;1.031192;0.6427875;2.266045;0.5728049;2.226203;
637952911048282638;187.5491;10;0;3.5;0.2;2;2600;1.34615384615385;0.9848077;1.673648;0.9388863;1.664309;-0.8660251;0.9999995;-0.8541932;1.031192;
637952911061264234;188.8482;10;0;3.5;0.2;2;1299;2.69438029253272;-0.9848078;1.673648;-0.9275023;1.649413;0.9848077;1.673648;0.9388863;1.664309;
637952911081256697;190.8471;10;0;3.5;0.2;2;1999;1.75087543771886;0.8660256;1;0.8318166;0.9957384;-0.9848078;1.673648;-0.9275023;1.649413;
637952911096238540;192.346;10;0;3.5;0.2;2;1499;2.33488992661775;-0.6427882;2.266044;-0.582971;2.258457;0.8660256;1;0.8318166;0.9957384;
637952911108230013;193.5454;10;0;3.5;0.2;2;1199;2.91909924937448;0.3420205;0.5603075;0.3409435;0.6354746;-0.6427882;2.266044;-0.582971;2.258457;
637952912475567313;330.293;10;1;4.5;0.1;2.2;1699;2.64861683343143;-0.3762217;0.4663379;-0.3670429;0.5134281;0;2.6;0.009567111;2.583954;
637952912492559404;331.9926;10;1;4.5;0.1;2.2;1700;2.64705882352941;0.7070663;2.342649;0.6886258;2.296597;-0.3762217;0.4663379;-0.3670429;0.5134281;
637952912504550879;333.1917;10;1;4.5;0.1;2.2;1199;3.75312760633862;-0.9526277;0.9499994;-0.9116842;0.963848;0.7070663;2.342649;0.6886258;2.296597;
637952912523533216;335.0907;10;1;4.5;0.1;2.2;1899;2.3696682464455;1.083289;1.691013;1.104145;1.704045;-0.9526277;0.9499994;-0.9116842;0.963848;
637952912544525798;337.1897;10;1;4.5;0.1;2.2;2099;2.14387803716055;-1.083289;1.691012;-1.067673;1.695125;1.083289;1.691013;1.104145;1.704045;
637952912564628272;339.1999;10;1;4.5;0.1;2.2;2010;2.23880597014925;0.9526281;0.9500003;0.9165232;0.9560847;-1.083289;1.691012;-1.067673;1.695125;
637952912585610856;341.2989;10;1;4.5;0.1;2.2;2099;2.14387803716055;-0.7070671;2.342648;-0.6974446;2.30927;0.9526281;0.9500003;0.9165232;0.9560847;
637952912608713699;343.6089;10;1;4.5;0.1;2.2;2310;1.94805194805195;0.3762226;0.4663382;0.3680011;0.5018382;-0.7070671;2.342648;-0.6974446;2.30927;
637952912632696648;346.0079;10;1;3.5;0.2;2;1200;2.91666666666667;-0.3420197;0.5603072;-0.3209416;0.6049354;0;2.5;-0.01316512;2.461738;
637952912647698495;347.5075;10;1;3.5;0.2;2;1500;2.33333333333333;0.6427875;2.266045;0.5972247;2.203202;-0.3420197;0.5603072;-0.3209416;0.6049354;
637952912662680338;349.0063;10;1;3.5;0.2;2;1499;2.33488992661775;-0.8660251;0.9999995;-0.8159292;1.032985;0.6427875;2.266045;0.5972247;2.203202;
637952912673671693;350.1057;10;1;3.5;0.2;2;1099;3.18471337579618;0.9848077;1.673648;0.9341276;1.645553;-0.8660251;0.9999995;-0.8159292;1.032985;
637952912684673046;351.2053;10;1;3.5;0.2;2;1100;3.18181818181818;-0.9848078;1.673648;-0.9478067;1.689148;0.9848077;1.673648;0.9341276;1.645553;
637952912703660422;353.1048;10;1;3.5;0.2;2;1900;1.84210526315789;0.8660256;1;0.799763;1.029248;-0.9848078;1.673648;-0.9478067;1.689148;
637952912717649809;354.504;10;1;3.5;0.2;2;1399;2.50178699070765;-0.6427882;2.266044;-0.5768555;2.251884;0.8660256;1;0.799763;1.029248;
637952912728651162;355.6036;10;1;3.5;0.2;2;1100;3.18181818181818;0.3420205;0.5603075;0.305427;0.6367786;-0.6427882;2.266044;-0.5768555;2.251884;
637952912745741317;357.3138;10;1;1.5;1.1;2;800;1.875;-0.3420197;0.5603072;-0.3276204;0.9120971;0;2.5;-0.002568496;2.386962;
637952912752742207;358.0133;10;1;1.5;1.1;2;700;2.14285714285714;0.6427875;2.266045;0.5349248;2.094777;-0.3420197;0.5603072;-0.3276204;0.9120971;
637952912760736933;358.813;10;1;1.5;1.1;2;800;1.875;-0.8660251;0.9999995;-0.8217826;1.190378;0.6427875;2.266045;0.5349248;2.094777;
637952912767721371;359.5128;10;1;1.5;1.1;2;700;2.14285714285714;0.9848077;1.673648;0.8825192;1.616996;-0.8660251;0.9999995;-0.8217826;1.190378;
637952912779712835;360.7122;10;1;1.5;1.1;2;1199;1.25104253544621;-0.9848078;1.673648;-0.5539772;1.757241;0.9848077;1.673648;0.8825192;1.616996;
637952912787703824;361.5117;10;1;1.5;1.1;2;799;1.87734668335419;0.8660256;1;0.6933763;1.212666;-0.9848078;1.673648;-0.5539772;1.757241;
637952912799695301;362.711;10;1;1.5;1.1;2;1199;1.25104253544621;-0.6427882;2.266044;-0.3452731;2.122397;0.8660256;1;0.6933763;1.212666;
637952912809696525;363.7105;10;1;1.5;1.1;2;1000;1.5;0.3420205;0.5603075;0.3009587;0.905867;-0.6427882;2.266044;-0.3452731;2.122397;
637952912829678992;365.7097;10;1;3;0.2;1.4;1000;3;-0.2394138;0.8422151;-0.2367925;0.8082082;0;2.2;0.003801187;2.167297;
637952912839680221;366.7093;10;1;3;0.2;1.4;1000;3;0.4499513;2.036231;0.3951885;2.031243;-0.2394138;0.8422151;-0.2367925;0.8082082;
637952912849671449;367.7085;10;1;3;0.2;1.4;999;3.003003003003;-0.6062176;1.15;-0.6001054;1.177553;0.4499513;2.036231;0.3951885;2.031243;
637952912859662681;368.7082;10;1;3;0.2;1.4;1000;3;0.6893654;1.621554;0.6738248;1.620335;-0.6062176;1.15;-0.6001054;1.177553;
637952912871654156;369.9077;10;1;3;0.2;1.4;1199;2.50208507089241;-0.6893655;1.621553;-0.6580231;1.597015;0.6893654;1.621554;0.6738248;1.620335;
637952912889756383;371.7179;10;1;3;0.2;1.4;1810;1.65745856353591;0.6062179;1.15;0.5578116;1.156522;-0.6893655;1.621553;-0.6580231;1.597015;
637952912900747738;372.8174;10;1;3;0.2;1.4;1099;2.72975432211101;-0.4499517;2.036231;-0.39248;2.023038;0.6062179;1.15;0.5578116;1.156522;
637952912910748967;373.8168;10;1;3;0.2;1.4;999;3.003003003003;0.2394144;0.8422153;0.2594644;0.8593854;-0.4499517;2.036231;-0.39248;2.023038;
637952912950723885;377.8155;10;1;4;0.1;1.4;2300;1.73913043478261;-0.2394138;0.8422151;-0.2435656;0.8473747;0;2.2;0.006735193;2.168365;
637952912964715608;379.2143;10;1;4;0.1;1.4;1399;2.85918513223731;0.4499513;2.036231;0.4550951;2.018947;-0.2394138;0.8422151;-0.2435656;0.8473747;
637952912986698315;381.4133;10;1;4;0.1;1.4;2199;1.81900864029104;-0.6062176;1.15;-0.6053517;1.151657;0.4499513;2.036231;0.4550951;2.018947;
637952913002690280;383.0126;10;1;4;0.1;1.4;1599;2.50156347717323;0.6893654;1.621554;0.6630093;1.608336;-0.6062176;1.15;-0.6053517;1.151657;
637952913021682616;384.912;10;1;4;0.1;1.4;1899;2.10637177461822;-0.6893655;1.621553;-0.6742768;1.612922;0.6893654;1.621554;0.6630093;1.608336;
637952913034674215;386.2112;10;1;4;0.1;1.4;1299;3.07929176289453;0.6062179;1.15;0.5690253;1.148346;-0.6893655;1.621553;-0.6742768;1.612922;
637952913052773366;388.0215;10;1;4;0.1;1.4;1810;2.20994475138122;-0.4499517;2.036231;-0.4444732;2.004123;0.6062179;1.15;0.5690253;1.148346;
637952913065771327;389.3209;10;1;4;0.1;1.4;1299;3.07929176289453;0.2394144;0.8422153;0.2227901;0.8497536;-0.4499517;2.036231;-0.4444732;2.004123;
637952913087762216;391.52;10;1;2.5;0.3;1.4;1100;2.27272727272727;-0.2394138;0.8422151;-0.254078;0.8289961;0;2.2;-0.01140371;2.182927;
637952913097753246;392.5193;10;1;2.5;0.3;1.4;999;2.5025025025025;0.4499513;2.036231;0.4138143;2.015144;-0.2394138;0.8422151;-0.254078;0.8289961;
637952913107753785;393.5192;10;1;2.5;0.3;1.4;1000;2.5;-0.6062176;1.15;-0.5774708;1.218535;0.4499513;2.036231;0.4138143;2.015144;
637952913116743211;394.4184;10;1;2.5;0.3;1.4;899;2.78086763070078;0.6893654;1.621554;0.6831051;1.644024;-0.6062176;1.15;-0.5774708;1.218535;
637952913126734292;395.4181;10;1;2.5;0.3;1.4;1000;2.5;-0.6893655;1.621553;-0.6522521;1.655434;0.6893654;1.621554;0.6831051;1.644024;
637952913135727820;396.3177;10;1;2.5;0.3;1.4;900;2.77777777777778;0.6062179;1.15;0.6012107;1.238796;-0.6893655;1.621553;-0.6522521;1.655434;
637952913143727744;397.1175;10;1;2.5;0.3;1.4;800;3.125;-0.4499517;2.036231;-0.4544527;2.032006;0.6062179;1.15;0.6012107;1.238796;
637952913151718767;397.9171;10;1;2.5;0.3;1.4;800;3.125;0.2394144;0.8422153;0.2869133;0.9239655;-0.4499517;2.036231;-0.4544527;2.032006;
637952913168713171;399.616;10;1;2;0.6;1.8;800;2.5;-0.3078177;0.6542765;-0.2791231;0.79559;0;2.4;-0.008070492;2.412619;
637952913174705652;400.216;10;1;2;0.6;1.8;600;3.33333333333333;0.5785087;2.18944;0.4568512;1.998701;-0.3078177;0.6542765;-0.2791231;0.79559;
637952913194808129;402.226;10;1;2;0.6;1.8;2010;0.995024875621891;-0.7794226;1.05;-0.672621;1.226378;0.5785087;2.18944;0.4568512;1.998701;
637952913203799235;403.1255;10;1;2;0.6;1.8;900;2.22222222222222;0.8863269;1.656283;0.8913397;1.748331;-0.7794226;1.05;-0.672621;1.226378;
637952913218801079;404.625;10;1;2;0.6;1.8;1500;1.33333333333333;-0.8863271;1.656283;-0.6534324;1.681707;0.8863269;1.656283;0.8913397;1.748331;
637952913231792679;405.9244;10;1;2;0.6;1.8;1299;1.53964588144727;0.779423;1.05;0.5614074;1.162225;-0.8863271;1.656283;-0.6534324;1.681707;
637952913242774033;407.0235;10;1;2;0.6;1.8;1099;1.81983621474067;-0.5785094;2.18944;-0.4846819;2.110781;0.779423;1.05;0.5614074;1.162225;
637952913264766738;409.2228;10;1;2;0.6;1.8;2199;0.909504320145521;0.3078185;0.6542768;0.282077;0.7156891;-0.5785094;2.18944;-0.4846819;2.110781;
637952914062889929;489.041;10;2;1.5;1.1;2;1899;0.789889415481833;-0.3420197;0.5603072;-0.2554282;0.9061353;0;2.5;-0.02118542;2.399681;
637952914072881157;490.0406;10;2;1.5;1.1;2;1000;1.5;0.6427875;2.266045;0.5073897;2.251768;-0.3420197;0.5603072;-0.2554282;0.9061353;
637952914087873006;491.54;10;2;1.5;1.1;2;1499;1.00066711140761;-0.8660251;0.9999995;-0.7419949;1.20019;0.6427875;2.266045;0.5073897;2.251768;
637952914097864233;492.5394;10;2;1.5;1.1;2;999;1.5015015015015;0.9848077;1.673648;0.7502466;1.666448;-0.8660251;0.9999995;-0.7419949;1.20019;
637952914112861778;494.0389;10;2;1.5;1.1;2;1499;1.00066711140761;-0.9848078;1.673648;-0.7501135;1.73055;0.9848077;1.673648;0.7502466;1.666448;
637952914124853251;495.2386;10;2;1.5;1.1;2;1200;1.25;0.8660256;1;0.7518666;1.207147;-0.9848078;1.673648;-0.7501135;1.73055;
637952914134954498;496.249;10;2;1.5;1.1;2;1010;1.48514851485149;-0.6427882;2.266044;-0.5421776;2.208125;0.8660256;1;0.7518666;1.207147;
637952914147946183;497.5484;10;2;1.5;1.1;2;1299;1.15473441108545;0.3420205;0.5603075;0.2570562;0.8462415;-0.6427882;2.266044;-0.5421776;2.208125;
637952914176929751;500.4469;10;2;2.5;0.3;1.4;1499;1.66777851901268;-0.2394138;0.8422151;-0.2231534;0.9145689;0;2.2;-0.01684373;2.193285;
637952914197916952;502.5462;10;2;2.5;0.3;1.4;2099;1.19104335397808;0.4499513;2.036231;0.4072239;2.003786;-0.2394138;0.8422151;-0.2231534;0.9145689;
637952914210918546;503.8458;10;2;2.5;0.3;1.4;1300;1.92307692307692;-0.6062176;1.15;-0.5918086;1.154685;0.4499513;2.036231;0.4072239;2.003786;
637952914222910022;505.045;10;2;2.5;0.3;1.4;1199;2.08507089241034;0.6893654;1.621554;0.6354696;1.612598;-0.6062176;1.15;-0.5918086;1.154685;
637952914234901496;506.2447;10;2;2.5;0.3;1.4;1200;2.08333333333333;-0.6893655;1.621553;-0.655549;1.649315;0.6893654;1.621554;0.6354696;1.612598;
637952914252893709;508.0436;10;2;2.5;0.3;1.4;1799;1.38966092273485;0.6062179;1.15;0.5356283;1.250124;-0.6893655;1.621553;-0.655549;1.649315;
637952914272876172;510.0426;10;2;2.5;0.3;1.4;1999;1.25062531265633;-0.4499517;2.036231;-0.4177749;1.972768;0.6062179;1.15;0.5356283;1.250124;
637952914284987659;511.2531;10;2;2.5;0.3;1.4;1211;2.06440957886045;0.2394144;0.8422153;0.2170415;0.9451069;-0.4499517;2.036231;-0.4177749;1.972768;
637952914308970612;513.6522;10;2;2;0.6;1.8;1299;1.53964588144727;-0.3078177;0.6542765;-0.3488929;0.720228;0;2.4;-0.00637386;2.347093;
637952914324962579;515.2513;10;2;2;0.6;1.8;1599;1.25078173858662;0.5785087;2.18944;0.4458727;2.04175;-0.3078177;0.6542765;-0.3488929;0.720228;
637952914334953810;516.2505;10;2;2;0.6;1.8;999;2.002002002002;-0.7794226;1.05;-0.666447;1.156745;0.5785087;2.18944;0.4458727;2.04175;
637952914344945042;517.2502;10;2;2;0.6;1.8;1000;2;0.8863269;1.656283;0.8369383;1.622285;-0.7794226;1.05;-0.666447;1.156745;
637952914353946149;518.1499;10;2;2;0.6;1.8;900;2.22222222222222;-0.8863271;1.656283;-0.8528772;1.693919;0.8863269;1.656283;0.8369383;1.622285;
637952914362937253;519.0495;10;2;2;0.6;1.8;900;2.22222222222222;0.779423;1.05;0.7483373;1.075496;-0.8863271;1.656283;-0.8528772;1.693919;
637952914373928607;520.1489;10;2;2;0.6;1.8;1099;1.81983621474067;-0.5785094;2.18944;-0.5222951;2.104628;0.779423;1.05;0.7483373;1.075496;
637952914384929956;521.2488;10;2;2;0.6;1.8;1100;1.81818181818182;0.3078185;0.6542768;0.3338176;0.8962491;-0.5785094;2.18944;-0.5222951;2.104628;
637952914407912787;523.5473;10;2;3.5;0.2;2;1299;2.69438029253272;-0.3420197;0.5603072;-0.3245437;0.5824641;0;2.5;0.02970453;2.469173;
637952914417904016;524.5469;10;2;3.5;0.2;2;1000;3.5;0.6427875;2.266045;0.6095366;2.246545;-0.3420197;0.5603072;-0.3245437;0.5824641;
637952914427905246;525.5464;10;2;3.5;0.2;2;1000;3.5;-0.8660251;0.9999995;-0.7966245;1.047469;0.6427875;2.266045;0.6095366;2.246545;
637952914446997597;527.4565;10;2;3.5;0.2;2;1910;1.83246073298429;0.9848077;1.673648;0.9250495;1.617519;-0.8660251;0.9999995;-0.7966245;1.047469;
637952914458999069;528.6559;10;2;3.5;0.2;2;1199;2.91909924937448;-0.9848078;1.673648;-0.9428862;1.672286;0.9848077;1.673648;0.9250495;1.617519;
637952914469990420;529.7556;10;2;3.5;0.2;2;1100;3.18181818181818;0.8660256;1;0.7786569;1.020544;-0.9848078;1.673648;-0.9428862;1.672286;
637952914479981655;530.7551;10;2;3.5;0.2;2;1000;3.5;-0.6427882;2.266044;-0.6011501;2.202268;0.8660256;1;0.7786569;1.020544;
637952914497977026;532.5544;10;2;3.5;0.2;2;1799;1.94552529182879;0.3420205;0.5603075;0.3117596;0.5593536;-0.6427882;2.266044;-0.6011501;2.202268;
637952914541946509;536.9523;10;2;4.5;0.1;2.2;1799;2.50138966092273;-0.3762217;0.4663379;-0.3458543;0.4793962;0;2.6;-0.005984446;2.577706;
637952914560935245;538.8515;10;2;4.5;0.1;2.2;1899;2.3696682464455;0.7070663;2.342649;0.722223;2.30637;-0.3762217;0.4663379;-0.3458543;0.4793962;
637952914584031471;541.1614;10;2;4.5;0.1;2.2;2310;1.94805194805195;-0.9526277;0.9499994;-0.9293962;0.9619677;0.7070663;2.342649;0.722223;2.30637;
637952914602023687;542.9607;10;2;4.5;0.1;2.2;1799;2.50138966092273;1.083289;1.691013;1.055556;1.683422;-0.9526277;0.9499994;-0.9293962;0.9619677;
637952914621016027;544.8594;10;2;4.5;0.1;2.2;1899;2.3696682464455;-1.083289;1.691012;-1.043159;1.68656;1.083289;1.691013;1.055556;1.683422;
637952914642998727;547.0586;10;2;4.5;0.1;2.2;2199;2.04638472032742;0.9526281;0.9500003;0.9384408;0.9834633;-1.083289;1.691012;-1.043159;1.68656;
637952914664991432;549.2576;10;2;4.5;0.1;2.2;2199;2.04638472032742;-0.7070671;2.342648;-0.6831289;2.313393;0.9526281;0.9500003;0.9384408;0.9834633;
637952914683973770;551.1566;10;2;4.5;0.1;2.2;1899;2.3696682464455;0.3762226;0.4663382;0.3807908;0.4941779;-0.7070671;2.342648;-0.6831289;2.313393;
637952914720958318;554.8552;10;2;4;0.1;1.4;1500;2.66666666666667;-0.2394138;0.8422151;-0.2244944;0.8760415;0;2.2;-0.004408097;2.16759;
637952914736060178;556.3655;10;2;4;0.1;1.4;1510;2.64900662251656;0.4499513;2.036231;0.4264137;2.036496;-0.2394138;0.8422151;-0.2244944;0.8760415;
637952914755052517;558.2647;10;2;4;0.1;1.4;1899;2.10637177461822;-0.6062176;1.15;-0.5971351;1.176914;0.4499513;2.036231;0.4264137;2.036496;
637952914771034485;559.8637;10;2;4;0.1;1.4;1599;2.50156347717323;0.6893654;1.621554;0.6685544;1.619414;-0.6062176;1.15;-0.5971351;1.176914;
637952914784036084;561.1631;10;2;4;0.1;1.4;1299;3.07929176289453;-0.6893655;1.621553;-0.6525184;1.628077;0.6893654;1.621554;0.6685544;1.619414;
637952914796027559;562.3625;10;2;4;0.1;1.4;1199;3.33611342785655;0.6062179;1.15;0.5787113;1.159887;-0.6893655;1.621553;-0.6525184;1.628077;
637952914808019033;563.5623;10;2;4;0.1;1.4;1200;3.33333333333333;-0.4499517;2.036231;-0.4584129;2.025915;0.6062179;1.15;0.5787113;1.159887;
637952914814259803;564.1926;10;2;4;0.1;1.4;630;6.34920634920635;0.2394144;0.8422153;0.2809241;0.8311375;-0.4499517;2.036231;-0.4584129;2.025915;
637952914834007333;566.1611;10;2;3;0.2;1.4;1000;3;-0.2394138;0.8422151;-0.2138666;0.89496;0;2.2;0.02482408;2.282994;
637952914853000068;568.0601;10;2;3;0.2;1.4;1899;1.57977883096367;0.4499513;2.036231;0.4121192;1.967032;-0.2394138;0.8422151;-0.2138666;0.89496;
637952914863991422;569.1596;10;2;3;0.2;1.4;1099;2.72975432211101;-0.6062176;1.15;-0.5527785;1.233913;0.4499513;2.036231;0.4121192;1.967032;
637952914890080903;571.7692;10;2;3;0.2;1.4;2610;1.14942528735632;0.6893654;1.621554;0.6296607;1.612891;-0.6062176;1.15;-0.5527785;1.233913;
637952914910070161;573.7686;10;2;3;0.2;1.4;1999;1.50075037518759;-0.6893655;1.621553;-0.6261948;1.638052;0.6893654;1.621554;0.6296607;1.612891;
637952914926062130;575.3678;10;2;3;0.2;1.4;1599;1.87617260787993;0.6062179;1.15;0.5782332;1.203854;-0.6893655;1.621553;-0.6261948;1.638052;
637952914937053481;576.4671;10;2;3;0.2;1.4;1099;2.72975432211101;-0.4499517;2.036231;-0.438212;1.994914;0.6062179;1.15;0.5782332;1.203854;
637952914949054959;577.6672;10;2;3;0.2;1.4;1200;2.5;0.2394144;0.8422153;0.2375888;0.9078294;-0.4499517;2.036231;-0.438212;1.994914;
637952915509183350;633.6851;10;3;3.5;0.2;2;1999;1.75087543771886;-0.3420197;0.5603072;-0.3132243;0.6193281;0;2.5;-0.008848898;2.484074;
637952915525175318;635.2845;10;3;3.5;0.2;2;1599;2.18886804252658;0.6427875;2.266045;0.5892791;2.239168;-0.3420197;0.5603072;-0.3132243;0.6193281;
637952915542157410;636.9837;10;3;3.5;0.2;2;1699;2.06003531489111;-0.8660251;0.9999995;-0.8447259;1.047737;0.6427875;2.266045;0.5892791;2.239168;
637952915562149869;638.9828;10;3;3.5;0.2;2;1999;1.75087543771886;0.9848077;1.673648;0.932092;1.684272;-0.8660251;0.9999995;-0.8447259;1.047737;
637952915576143551;640.382;10;3;3.5;0.2;2;1399;2.50178699070765;-0.9848078;1.673648;-0.9207257;1.66562;0.9848077;1.673648;0.932092;1.684272;
637952915590125269;641.7811;10;3;3.5;0.2;2;1399;2.50178699070765;0.8660256;1;0.8250028;1.049447;-0.9848078;1.673648;-0.9207257;1.66562;
637952915605237128;643.2919;10;3;3.5;0.2;2;1511;2.31634679020516;-0.6427882;2.266044;-0.6110865;2.258314;0.8660256;1;0.8250028;1.049447;
637952915619229048;644.6912;10;3;3.5;0.2;2;1399;2.50178699070765;0.3420205;0.5603075;0.3132076;0.6097159;-0.6427882;2.266044;-0.6110865;2.258314;
637952915646211264;647.3898;10;3;4;0.1;1.4;1099;3.63967242948135;-0.2394138;0.8422151;-0.2377623;0.8801922;0;2.2;9.240396E-05;2.167947;
637952915664203495;649.1887;10;3;4;0.1;1.4;1799;2.22345747637576;0.4499513;2.036231;0.4416049;2.023891;-0.2394138;0.8422151;-0.2377623;0.8801922;
637952915676204974;650.3889;10;3;4;0.1;1.4;1200;3.33333333333333;-0.6062176;1.15;-0.572455;1.155339;0.4499513;2.036231;0.4416049;2.023891;
637952915692186941;651.9878;10;3;4;0.1;1.4;1599;2.50156347717323;0.6893654;1.621554;0.6663525;1.64076;-0.6062176;1.15;-0.572455;1.155339;
637952915705178541;653.287;10;3;4;0.1;1.4;1299;3.07929176289453;-0.6893655;1.621553;-0.6908978;1.609711;0.6893654;1.621554;0.6663525;1.64076;
637952915717170016;654.4866;10;3;4;0.1;1.4;1200;3.33333333333333;0.6062179;1.15;0.5922887;1.173226;-0.6893655;1.621553;-0.6908978;1.609711;
637952915729161491;655.686;10;3;4;0.1;1.4;1199;3.33611342785655;-0.4499517;2.036231;-0.4380719;2.016935;0.6062179;1.15;0.5922887;1.173226;
637952915740162842;656.7854;10;3;4;0.1;1.4;1099;3.63967242948135;0.2394144;0.8422153;0.2357716;0.8810898;-0.4499517;2.036231;-0.4380719;2.016935;
637952915763255686;659.0955;10;3;3;0.2;1.4;1410;2.12765957446809;-0.2394138;0.8422151;-0.2257812;0.9166911;0;2.2;-0.0224616;2.11512;
637952915773256918;660.0953;10;3;3;0.2;1.4;1000;3;0.4499513;2.036231;0.4258714;1.989693;-0.2394138;0.8422151;-0.2257812;0.9166911;
637952915788238758;661.5945;10;3;3;0.2;1.4;1499;2.00133422281521;-0.6062176;1.15;-0.6019941;1.207831;0.4499513;2.036231;0.4258714;1.989693;
637952915800160220;662.7861;10;3;3;0.2;1.4;1192;2.51677852348993;0.6893654;1.621554;0.6874247;1.611004;-0.6062176;1.15;-0.6019941;1.207831;
637952915810231467;663.7932;10;3;3;0.2;1.4;1007;2.97914597815293;-0.6893655;1.621553;-0.6511737;1.64254;0.6893654;1.621554;0.6874247;1.611004;
637952915820222696;664.7928;10;3;3;0.2;1.4;1000;3;0.6062179;1.15;0.5723683;1.183503;-0.6893655;1.621553;-0.6511737;1.64254;
637952915831214047;665.8922;10;3;3;0.2;1.4;1099;2.72975432211101;-0.4499517;2.036231;-0.4300251;2.00399;0.6062179;1.15;0.5723683;1.183503;
637952915843215524;667.0919;10;3;3;0.2;1.4;1200;2.5;0.2394144;0.8422153;0.2366576;0.8501512;-0.4499517;2.036231;-0.4300251;2.00399;
637952915880190075;670.7901;10;3;4.5;0.1;2.2;2299;1.9573727707699;-0.3762217;0.4663379;-0.3718243;0.506404;0;2.6;-0.0005507492;2.567341;
637952915892501591;672.0292;10;3;4.5;0.1;2.2;1239;3.6319612590799;0.7070663;2.342649;0.7259744;2.297385;-0.3762217;0.4663379;-0.3718243;0.506404;
637952915911173891;673.8889;10;3;4.5;0.1;2.2;1860;2.41935483870968;-0.9526277;0.9499994;-0.9095117;0.9712743;0.7070663;2.342649;0.7259744;2.297385;
637952915931276359;675.8987;10;3;4.5;0.1;2.2;2010;2.23880597014925;1.083289;1.691013;1.070837;1.667769;-0.9526277;0.9499994;-0.9095117;0.9712743;
637952915948262729;677.598;10;3;4.5;0.1;2.2;1699;2.64861683343143;-1.083289;1.691012;-1.05132;1.678773;1.083289;1.691013;1.070837;1.667769;
637952915967255063;679.4973;10;3;4.5;0.1;2.2;1899;2.3696682464455;0.9526281;0.9500003;0.9160104;0.9688709;-1.083289;1.691012;-1.05132;1.678773;
637952915981245119;680.897;10;3;4.5;0.1;2.2;1400;3.21428571428571;-0.7070671;2.342648;-0.6908495;2.332379;0.9526281;0.9500003;0.9160104;0.9688709;
637952916003236591;683.0958;10;3;4.5;0.1;2.2;2199;2.04638472032742;0.3762226;0.4663382;0.3610907;0.4963915;-0.7070671;2.342648;-0.6908495;2.332379;
637952916020217698;684.7946;10;3;2;0.6;1.8;900;2.22222222222222;-0.3078177;0.6542765;-0.336252;0.7993488;0;2.4;0.01684033;2.221593;
637952916038207560;686.5937;10;3;2;0.6;1.8;1799;1.11172873818788;0.5785087;2.18944;0.5497086;2.136101;-0.3078177;0.6542765;-0.336252;0.7993488;
637952916047318465;687.5046;10;3;2;0.6;1.8;911;2.1953896816685;-0.7794226;1.05;-0.8095518;1.217291;0.5785087;2.18944;0.5497086;2.136101;
637952916056309570;688.4041;10;3;2;0.6;1.8;899;2.22469410456062;0.8863269;1.656283;1.094831;1.765631;-0.7794226;1.05;-0.8095518;1.217291;
637952916070301293;689.8037;10;3;2;0.6;1.8;1400;1.42857142857143;-0.8863271;1.656283;-0.6642288;1.728451;0.8863269;1.656283;1.094831;1.765631;
637952916080302520;690.8033;10;3;2;0.6;1.8;1000;2;0.779423;1.05;0.7520611;1.092108;-0.8863271;1.656283;-0.6642288;1.728451;
637952916089293630;691.7029;10;3;2;0.6;1.8;900;2.22222222222222;-0.5785094;2.18944;-0.4414894;2.08178;0.779423;1.05;0.7520611;1.092108;
637952916099294858;692.7027;10;3;2;0.6;1.8;1000;2;0.3078185;0.6542768;0.2640395;0.8611524;-0.5785094;2.18944;-0.4414894;2.08178;
637952916118277194;694.6015;10;3;2.5;0.3;1.4;900;2.77777777777778;-0.2394138;0.8422151;-0.2664637;0.9551595;0;2.2;-0.002819786;2.171866;
637952916142260693;697;10;3;2.5;0.3;1.4;2399;1.04210087536474;0.4499513;2.036231;0.4407951;2.069846;-0.2394138;0.8422151;-0.2664637;0.9551595;
637952916154262517;698.1996;10;3;2.5;0.3;1.4;1200;2.08333333333333;-0.6062176;1.15;-0.5801709;1.218543;0.4499513;2.036231;0.4407951;2.069846;
637952916163363904;699.1102;10;3;2.5;0.3;1.4;911;2.74423710208562;0.6893654;1.621554;0.7159208;1.656655;-0.6062176;1.15;-0.5801709;1.218543;
637952916178356181;700.6098;10;3;2.5;0.3;1.4;1500;1.66666666666667;-0.6893655;1.621553;-0.6386501;1.58878;0.6893654;1.621554;0.7159208;1.656655;
637952916188347695;701.6088;10;3;2.5;0.3;1.4;999;2.5025025025025;0.6062179;1.15;0.6208625;1.184487;-0.6893655;1.621553;-0.6386501;1.58878;
637952916200349518;702.8087;10;3;2.5;0.3;1.4;1200;2.08333333333333;-0.4499517;2.036231;-0.4033154;2.042134;0.6062179;1.15;0.6208625;1.184487;
637952916209340887;703.708;10;3;2.5;0.3;1.4;899;2.78086763070078;0.2394144;0.8422153;0.2542258;0.9343374;-0.4499517;2.036231;-0.4033154;2.042134;
637952916235324834;706.3068;10;3;1.5;1.1;2;1799;0.833796553640912;-0.3420197;0.5603072;-0.2779662;0.9617839;0;2.5;-0.002890008;2.291241;
637952916245316354;707.3065;10;3;1.5;1.1;2;1000;1.5;0.6427875;2.266045;0.4612991;2.186216;-0.3420197;0.5603072;-0.2779662;0.9617839;
637952916258318331;708.606;10;3;1.5;1.1;2;1299;1.15473441108545;-0.8660251;0.9999995;-0.6395292;1.272425;0.6427875;2.266045;0.4612991;2.186216;
637952916268309848;709.6052;10;3;1.5;1.1;2;999;1.5015015015015;0.9848077;1.673648;0.708598;1.733523;-0.8660251;0.9999995;-0.6395292;1.272425;
637952916277301214;710.505;10;3;1.5;1.1;2;900;1.66666666666667;-0.9848078;1.673648;-0.7740691;1.895958;0.9848077;1.673648;0.708598;1.733523;
637952916287292731;711.5045;10;3;1.5;1.1;2;1000;1.5;0.8660256;1;0.8678705;1.441423;-0.9848078;1.673648;-0.7740691;1.895958;
637952916304295321;713.2037;10;3;1.5;1.1;2;1699;0.882872277810477;-0.6427882;2.266044;-0.390335;2.059012;0.8660256;1;0.8678705;1.441423;
637952916319277592;714.7031;10;3;1.5;1.1;2;1499;1.00066711140761;0.3420205;0.5603075;0.251936;1.04886;-0.6427882;2.266044;-0.390335;2.059012;
637952917306625119;813.446;10;4;2;0.6;1.8;800;2.5;-0.3078177;0.6542765;-0.2785578;0.7513555;0;2.4;0.05282191;2.290466;
637952917314626336;814.2458;10;4;2;0.6;1.8;800;2.5;0.5785087;2.18944;0.6601722;2.117609;-0.3078177;0.6542765;-0.2785578;0.7513555;
637952917323617702;815.1453;10;4;2;0.6;1.8;899;2.22469410456062;-0.7794226;1.05;-0.6847109;1.21268;0.5785087;2.18944;0.6601722;2.117609;
637952917331608916;815.9446;10;4;2;0.6;1.8;799;2.50312891113892;0.8863269;1.656283;0.9305968;1.638259;-0.7794226;1.05;-0.6847109;1.21268;
637952917339610130;816.7445;10;4;2;0.6;1.8;800;2.5;-0.8863271;1.656283;-0.8239472;1.696963;0.8863269;1.656283;0.9305968;1.638259;
637952917346601189;817.4437;10;4;2;0.6;1.8;699;2.86123032904149;0.779423;1.05;0.7814646;1.200228;-0.8863271;1.656283;-0.8239472;1.696963;
637952917354592407;818.2437;10;4;2;0.6;1.8;800;2.5;-0.5785094;2.18944;-0.5620606;2.123268;0.779423;1.05;0.7814646;1.200228;
637952917370584835;819.8428;10;4;2;0.6;1.8;1599;1.25078173858662;0.3078185;0.6542768;0.2905264;0.7841103;-0.5785094;2.18944;-0.5620606;2.123268;
637952917388577570;821.6419;10;4;2.5;0.3;1.4;799;3.12891113892365;-0.2394138;0.8422151;-0.2081646;0.7347177;0;2.2;0.03294811;2.17831;
637952917397578938;822.5416;10;4;2.5;0.3;1.4;900;2.77777777777778;0.4499513;2.036231;0.4524304;2.019876;-0.2394138;0.8422151;-0.2081646;0.7347177;
637952917405680172;823.3522;10;4;2.5;0.3;1.4;811;3.0826140567201;-0.6062176;1.15;-0.5748887;1.142675;0.4499513;2.036231;0.4524304;2.019876;
637952917413671385;824.1519;10;4;2.5;0.3;1.4;800;3.125;0.6893654;1.621554;0.7373973;1.628329;-0.6062176;1.15;-0.5748887;1.142675;
637952917422672754;825.0516;10;4;2.5;0.3;1.4;900;2.77777777777778;-0.6893655;1.621553;-0.6541395;1.639467;0.6893654;1.621554;0.7373973;1.628329;
637952917429673816;825.7515;10;4;2.5;0.3;1.4;700;3.57142857142857;0.6062179;1.15;0.6381956;1.112347;-0.6893655;1.621553;-0.6541395;1.639467;
637952917437665029;826.5508;10;4;2.5;0.3;1.4;799;3.12891113892365;-0.4499517;2.036231;-0.5026556;2.041039;0.6062179;1.15;0.6381956;1.112347;
637952917444656088;827.2503;10;4;2.5;0.3;1.4;700;3.57142857142857;0.2394144;0.8422153;0.2211288;0.9120017;-0.4499517;2.036231;-0.5026556;2.041039;
637952917469639889;829.7491;10;4;3.5;0.2;2;1599;2.18886804252658;-0.3420197;0.5603072;-0.3258954;0.6197953;0;2.5;-0.001932501;2.477474;
637952917485642318;831.3486;10;4;3.5;0.2;2;1600;2.1875;0.6427875;2.266045;0.5716521;2.213747;-0.3420197;0.5603072;-0.3258954;0.6197953;
637952917500624594;832.8479;10;4;3.5;0.2;2;1499;2.33488992661775;-0.8660251;0.9999995;-0.7799976;1.034911;0.6427875;2.266045;0.5716521;2.213747;
637952917524614192;835.2466;10;4;3.5;0.2;2;2399;1.45894122551063;0.9848077;1.673648;0.9215856;1.691415;-0.8660251;0.9999995;-0.7799976;1.034911;
637952917536616017;836.4462;10;4;3.5;0.2;2;1200;2.91666666666667;-0.9848078;1.673648;-0.9573478;1.630963;0.9848077;1.673648;0.9215856;1.691415;
637952917552708464;838.0567;10;4;3.5;0.2;2;1610;2.17391304347826;0.8660256;1;0.8532106;1.018815;-0.9848078;1.673648;-0.9573478;1.630963;
637952917562708147;839.0561;10;4;3.5;0.2;2;999;3.5035035035035;-0.6427882;2.266044;-0.5941144;2.189869;0.8660256;1;0.8532106;1.018815;
637952917581694309;840.9554;10;4;3.5;0.2;2;1899;1.84307530279094;0.3420205;0.5603075;0.3451659;0.6313777;-0.6427882;2.266044;-0.5941144;2.189869;
637952917614948144;844.2883;10;4;4.5;0.1;2.2;1834;2.453653217012;-0.3762217;0.4663379;-0.3894976;0.5127109;0;2.6;-0.009968929;2.561825;
637952917653654024;848.1519;10;4;4.5;0.1;2.2;3864;1.16459627329193;0.7070663;2.342649;0.6838719;2.32249;-0.3762217;0.4663379;-0.3894976;0.5127109;
637952917672646909;850.0507;10;4;4.5;0.1;2.2;1899;2.3696682464455;-0.9526277;0.9499994;-0.9323013;0.9528768;0.7070663;2.342649;0.6838719;2.32249;
637952917697740719;852.5611;10;4;4.5;0.1;2.2;2510;1.79282868525896;1.083289;1.691013;1.053493;1.703282;-0.9526277;0.9499994;-0.9323013;0.9528768;
637952917713733150;854.1603;10;4;4.5;0.1;2.2;1599;2.81425891181989;-1.083289;1.691012;-1.06875;1.712491;1.083289;1.691013;1.053493;1.703282;
637952917725724972;855.3596;10;4;4.5;0.1;2.2;1199;3.75312760633862;0.9526281;0.9500003;0.9401471;0.9323509;-1.083289;1.691012;-1.06875;1.712491;
637952917768721506;859.6586;10;4;4.5;0.1;2.2;4299;1.04675505931612;-0.7070671;2.342648;-0.6767895;2.343785;0.9526281;0.9500003;0.9401471;0.9323509;
637952917805687123;863.3559;10;4;4.5;0.1;2.2;3697;1.2172031376792;0.3762226;0.4663382;0.3579293;0.4967245;-0.7070671;2.342648;-0.6767895;2.343785;
637952917855774733;868.3647;10;4;3;0.2;1.4;1810;1.65745856353591;-0.2394138;0.8422151;-0.2900153;0.8846672;0;2.2;-0.00988812;2.164206;
637952917866766404;869.4641;10;4;3;0.2;1.4;1099;2.72975432211101;0.4499513;2.036231;0.401398;2.079466;-0.2394138;0.8422151;-0.2900153;0.8846672;
637952917876762967;870.464;10;4;3;0.2;1.4;1000;3;-0.6062176;1.15;-0.5505381;1.181516;0.4499513;2.036231;0.401398;2.079466;
637952917888865345;871.674;10;4;3;0.2;1.4;1210;2.47933884297521;0.6893654;1.621554;0.632808;1.620168;-0.6062176;1.15;-0.5505381;1.181516;
637952917899126903;872.7085;10;4;3;0.2;1.4;1034;2.90135396518375;-0.6893655;1.621553;-0.642436;1.709639;0.6893654;1.621554;0.632808;1.620168;
637952917908818378;873.6697;10;4;3;0.2;1.4;961;3.12174817898023;0.6062179;1.15;0.5506577;1.107538;-0.6893655;1.621553;-0.642436;1.709639;
637952917917850625;874.5729;10;4;3;0.2;1.4;903;3.32225913621262;-0.4499517;2.036231;-0.4164299;2.027869;0.6062179;1.15;0.5506577;1.107538;
637952917930836179;875.8721;10;4;3;0.2;1.4;1299;2.3094688221709;0.2394144;0.8422153;0.2416129;0.9053122;-0.4499517;2.036231;-0.4164299;2.027869;
637952917956160035;878.4117;10;4;4;0.1;1.4;1440;2.77777777777778;-0.2394138;0.8422151;-0.261626;0.8870188;0;2.2;0.02517657;2.171775;
637952917966931665;879.4816;10;4;4;0.1;1.4;1070;3.73831775700935;0.4499513;2.036231;0.4306126;2.017473;-0.2394138;0.8422151;-0.261626;0.8870188;
637952917978923493;880.6813;10;4;4;0.1;1.4;1200;3.33333333333333;-0.6062176;1.15;-0.5819212;1.186642;0.4499513;2.036231;0.4306126;2.017473;
637952917990925315;881.881;10;4;4;0.1;1.4;1200;3.33333333333333;0.6893654;1.621554;0.6867362;1.633298;-0.6062176;1.15;-0.5819212;1.186642;
637952918008908047;883.6799;10;4;4;0.1;1.4;1799;2.22345747637576;-0.6893655;1.621553;-0.6540796;1.62476;0.6893654;1.621554;0.6867362;1.633298;
637952918019899716;884.7792;10;4;4;0.1;1.4;1099;3.63967242948135;0.6062179;1.15;0.6120633;1.165616;-0.6893655;1.621553;-0.6540796;1.62476;
637952918030901382;885.8789;10;4;4;0.1;1.4;1100;3.63636363636364;-0.4499517;2.036231;-0.4386742;2.026426;0.6062179;1.15;0.6120633;1.165616;
637952918041893060;886.978;10;4;4;0.1;1.4;1099;3.63967242948135;0.2394144;0.8422153;0.2366773;0.8905369;-0.4499517;2.036231;-0.4386742;2.026426;
637952918058885641;888.6776;10;4;1.5;1.1;2;800;1.875;-0.3420197;0.5603072;-0.2880379;0.895564;0;2.5;-0.05463537;2.323227;
637952918066876853;889.4772;10;4;1.5;1.1;2;800;1.875;0.6427875;2.266045;0.4561363;2.034113;-0.3420197;0.5603072;-0.2880379;0.895564;
637952918073877923;890.1767;10;4;1.5;1.1;2;699;2.14592274678112;-0.8660251;0.9999995;-0.8454791;1.329681;0.6427875;2.266045;0.4561363;2.034113;
637952918080868981;890.8765;10;4;1.5;1.1;2;700;2.14285714285714;0.9848077;1.673648;0.703819;1.693542;-0.8660251;0.9999995;-0.8454791;1.329681;
637952918086869892;891.4763;10;4;1.5;1.1;2;600;2.5;-0.9848078;1.673648;-0.6618621;1.735149;0.9848077;1.673648;0.703819;1.693542;
637952918100862020;892.8756;10;4;1.5;1.1;2;1399;1.07219442458899;0.8660256;1;0.5995928;1.320347;-0.9848078;1.673648;-0.6618621;1.735149;
637952918109853386;893.7753;10;4;1.5;1.1;2;900;1.66666666666667;-0.6427882;2.266044;-0.3877999;2.05626;0.8660256;1;0.5995928;1.320347;
637952918116964469;894.4858;10;4;1.5;1.1;2;711;2.10970464135021;0.3420205;0.5603075;0.2996378;1.018002;-0.6427882;2.266044;-0.3877999;2.05626;
637952918603165091;943.1076;10;5;2.5;0.3;1.4;611;4.09165302782324;-0.2394138;0.8422151;-0.3124261;0.7858422;0;2.2;0.0212557;2.134923;
637952918611156304;943.9075;10;5;2.5;0.3;1.4;800;3.125;0.4499513;2.036231;0.3866059;2.050478;-0.2394138;0.8422151;-0.3124261;0.7858422;
637952918618157370;944.6072;10;5;2.5;0.3;1.4;700;3.57142857142857;-0.6062176;1.15;-0.6051368;1.230082;0.4499513;2.036231;0.3866059;2.050478;
637952918625148463;945.3066;10;5;2.5;0.3;1.4;699;3.57653791130186;0.6893654;1.621554;0.7471655;1.631912;-0.6062176;1.15;-0.6051368;1.230082;
637952918633144408;946.1064;10;5;2.5;0.3;1.4;800;3.125;-0.6893655;1.621553;-0.7189697;1.677781;0.6893654;1.621554;0.7471655;1.631912;
637952918640144173;946.806;10;5;2.5;0.3;1.4;700;3.57142857142857;0.6062179;1.15;0.6653734;1.120232;-0.6893655;1.621553;-0.7189697;1.677781;
637952918648133510;947.6055;10;5;2.5;0.3;1.4;799;3.12891113892365;-0.4499517;2.036231;-0.5714912;2.083966;0.6062179;1.15;0.6653734;1.120232;
637952918657132766;948.5053;10;5;2.5;0.3;1.4;900;2.77777777777778;0.2394144;0.8422153;0.2326856;0.9019167;-0.4499517;2.036231;-0.5714912;2.083966;
637952918676119005;950.4043;10;5;2;0.6;1.8;799;2.50312891113892;-0.3078177;0.6542765;-0.2447067;0.9199324;0;2.4;-0.01147197;2.107583;
637952918684120219;951.2038;10;5;2;0.6;1.8;799;2.50312891113892;0.5785087;2.18944;0.4466439;2.163913;-0.3078177;0.6542765;-0.2447067;0.9199324;
637952918691111283;951.9036;10;5;2;0.6;1.8;700;2.85714285714286;-0.7794226;1.05;-0.7973487;1.248152;0.5785087;2.18944;0.4466439;2.163913;
637952918698112344;952.6036;10;5;2;0.6;1.8;700;2.85714285714286;0.8863269;1.656283;0.7504964;1.713692;-0.7794226;1.05;-0.7973487;1.248152;
637952918709104016;953.7029;10;5;2;0.6;1.8;1099;1.81983621474067;-0.8863271;1.656283;-0.6896976;1.721968;0.8863269;1.656283;0.7504964;1.713692;
637952918717095229;954.5024;10;5;2;0.6;1.8;800;2.5;0.779423;1.05;0.7385471;1.208729;-0.8863271;1.656283;-0.6896976;1.721968;
637952918729097054;955.7018;10;5;2;0.6;1.8;1199;1.66805671392827;-0.5785094;2.18944;-0.4370385;2.031679;0.779423;1.05;0.7385471;1.208729;
637952918739088571;956.7015;10;5;2;0.6;1.8;1000;2;0.3078185;0.6542768;0.256894;0.924461;-0.5785094;2.18944;-0.4370385;2.031679;
637952918778174514;960.6107;10;5;4;0.1;1.4;2598;1.53964588144727;-0.2394138;0.8422151;-0.2260552;0.8515674;0;2.2;-0.0001898911;2.180935;
637952918790166334;961.81;10;5;4;0.1;1.4;1199;3.33611342785655;0.4499513;2.036231;0.4161569;2.015406;-0.2394138;0.8422151;-0.2260552;0.8515674;
637952918811159525;963.9094;10;5;4;0.1;1.4;2099;1.90566936636494;-0.6062176;1.15;-0.6128281;1.191916;0.4499513;2.036231;0.4161569;2.015406;
637952918827151951;965.5083;10;5;4;0.1;1.4;1599;2.50156347717323;0.6893654;1.621554;0.7240771;1.62708;-0.6062176;1.15;-0.6128281;1.191916;
637952918839143776;966.7077;10;5;4;0.1;1.4;1199;3.33611342785655;-0.6893655;1.621553;-0.6649322;1.624004;0.6893654;1.621554;0.7240771;1.62708;
637952918852135750;968.0076;10;5;4;0.1;1.4;1300;3.07692307692308;0.6062179;1.15;0.5916653;1.167401;-0.6893655;1.621553;-0.6649322;1.624004;
637952918864127572;969.2068;10;5;4;0.1;1.4;1199;3.33611342785655;-0.4499517;2.036231;-0.4360266;2.018253;0.6062179;1.15;0.5916653;1.167401;
637952918876129395;970.4062;10;5;4;0.1;1.4;1199;3.33611342785655;0.2394144;0.8422153;0.228598;0.8771476;-0.4499517;2.036231;-0.4360266;2.018253;
637952918899112887;972.7053;10;5;3.5;0.2;2;1200;2.91666666666667;-0.3420197;0.5603072;-0.3392416;0.6477827;0;2.5;0.01561323;2.409536;
637952918912214880;974.0157;10;5;3.5;0.2;2;1310;2.67175572519084;0.6427875;2.266045;0.6069688;2.242208;-0.3420197;0.5603072;-0.3392416;0.6477827;
637952918921206249;974.915;10;5;3.5;0.2;2;899;3.89321468298109;-0.8660251;0.9999995;-0.8101214;1.018462;0.6427875;2.266045;0.6069688;2.242208;
637952918929207462;975.7149;10;5;3.5;0.2;2;800;4.375;0.9848077;1.673648;1.028406;1.729625;-0.8660251;0.9999995;-0.8101214;1.018462;
637952918938198826;976.6143;10;5;3.5;0.2;2;899;3.89321468298109;-0.9848078;1.673648;-0.9717288;1.67226;0.9848077;1.673648;1.028406;1.729625;
637952918948200347;977.6139;10;5;3.5;0.2;2;1000;3.5;0.8660256;1;0.8032896;1.058719;-0.9848078;1.673648;-0.9717288;1.67226;
637952918955191907;978.3134;10;5;3.5;0.2;2;700;5;-0.6427882;2.266044;-0.6389993;2.230443;0.8660256;1;0.8032896;1.058719;
637952918965190842;979.313;10;5;3.5;0.2;2;1000;3.5;0.3420205;0.5603075;0.2806436;0.6256534;-0.6427882;2.266044;-0.6389993;2.230443;
637952918983183583;981.1122;10;5;3;0.2;1.4;900;3.33333333333333;-0.2394138;0.8422151;-0.2172617;0.8398664;0;2.2;-0.01434852;2.146873;
637952919003486670;983.151;10;5;3;0.2;1.4;2039;1.47130946542423;0.4499513;2.036231;0.3830767;1.975896;-0.2394138;0.8422151;-0.2172617;0.8398664;
637952919012166082;984.011;10;5;3;0.2;1.4;860;3.48837209302326;-0.6062176;1.15;-0.5722701;1.182293;0.4499513;2.036231;0.3830767;1.975896;
637952919020157298;984.8107;10;5;3;0.2;1.4;800;3.75;0.6893654;1.621554;0.7030986;1.642239;-0.6062176;1.15;-0.5722701;1.182293;
637952919029151080;985.7103;10;5;3;0.2;1.4;899;3.33704115684093;-0.6893655;1.621553;-0.672043;1.643322;0.6893654;1.621554;0.7030986;1.642239;
637952919045259357;987.3204;10;5;3;0.2;1.4;1610;1.86335403726708;0.6062179;1.15;0.5811359;1.161626;-0.6893655;1.621553;-0.672043;1.643322;
637952919055248920;988.3202;10;5;3;0.2;1.4;1000;3;-0.4499517;2.036231;-0.4716667;2.113788;0.6062179;1.15;0.5811359;1.161626;
637952919073241656;990.119;10;5;3;0.2;1.4;1799;1.66759310728182;0.2394144;0.8422153;0.2134361;0.9145263;-0.4499517;2.036231;-0.4716667;2.113788;
637952919101225910;992.9178;10;5;4.5;0.1;2.2;1399;3.21658327376698;-0.3762217;0.4663379;-0.3861316;0.4818629;0;2.6;0.01000429;2.560253;
637952919127209856;995.5167;10;5;4.5;0.1;2.2;2599;1.73143516737207;0.7070663;2.342649;0.7031897;2.308225;-0.3762217;0.4663379;-0.3861316;0.4818629;
637952919139201680;996.7162;10;5;4.5;0.1;2.2;1200;3.75;-0.9526277;0.9499994;-0.9321792;0.9565208;0.7070663;2.342649;0.7031897;2.308225;
637952919161515069;998.9548;10;5;4.5;0.1;2.2;2239;2.00982581509603;1.083289;1.691013;1.033337;1.692374;-0.9526277;0.9499994;-0.9321792;0.9565208;
637952919173186845;1000.115;10;5;4.5;0.1;2.2;1160;3.87931034482759;-1.083289;1.691012;-1.048389;1.668057;1.083289;1.691013;1.033337;1.692374;
637952919185298683;1001.325;10;5;4.5;0.1;2.2;1211;3.7159372419488;0.9526281;0.9500003;0.9045798;0.9595668;-1.083289;1.691012;-1.048389;1.668057;
637952919219273845;1004.724;10;5;4.5;0.1;2.2;3398;1.32430841671572;-0.7070671;2.342648;-0.6845754;2.344804;0.9526281;0.9500003;0.9045798;0.9595668;
637952919235266271;1006.323;10;5;4.5;0.1;2.2;1599;2.81425891181989;0.3762226;0.4663382;0.3585958;0.5107352;-0.7070671;2.342648;-0.6845754;2.344804;
637952919263250531;1009.122;10;5;1.5;1.1;2;1999;0.750375187593797;-0.3420197;0.5603072;-0.2217448;1.050594;0;2.5;-0.01462072;2.234951;
637952919276242503;1010.421;10;5;1.5;1.1;2;1299;1.15473441108545;0.6427875;2.266045;0.3008906;1.987368;-0.3420197;0.5603072;-0.2217448;1.050594;
637952919285243869;1011.321;10;5;1.5;1.1;2;900;1.66666666666667;-0.8660251;0.9999995;-0.6761858;1.283189;0.6427875;2.266045;0.3008906;1.987368;
637952919297235692;1012.52;10;5;1.5;1.1;2;1199;1.25104253544621;0.9848077;1.673648;0.483131;1.649662;-0.8660251;0.9999995;-0.6761858;1.283189;
637952919305226909;1013.32;10;5;1.5;1.1;2;800;1.875;-0.9848078;1.673648;-0.6927131;1.651702;0.9848077;1.673648;0.483131;1.649662;
637952919313228123;1014.12;10;5;1.5;1.1;2;800;1.875;0.8660256;1;0.6485906;1.303359;-0.9848078;1.673648;-0.6927131;1.651702;
637952919321219338;1014.919;10;5;1.5;1.1;2;799;1.87734668335419;-0.6427882;2.266044;-0.3924777;2.020323;0.8660256;1;0.6485906;1.303359;
637952919330220706;1015.819;10;5;1.5;1.1;2;900;1.66666666666667;0.3420205;0.5603075;0.3924305;0.9456007;-0.6427882;2.266044;-0.3924777;2.020323;
637952919788412123;1061.641;10;6;4.5;0.1;2.2;1099;4.09463148316652;-0.3762217;0.4663379;-0.3799579;0.5092804;0;2.6;0.03511809;2.575623;
637952919811405618;1063.94;10;6;4.5;0.1;2.2;2299;1.9573727707699;0.7070663;2.342649;0.6890696;2.342553;-0.3762217;0.4663379;-0.3799579;0.5092804;
637952919825397742;1065.34;10;6;4.5;0.1;2.2;1399;3.21658327376698;-0.9526277;0.9499994;-0.9521311;0.9524604;0.7070663;2.342649;0.6890696;2.342553;
637952919839379866;1066.739;10;6;4.5;0.1;2.2;1399;3.21658327376698;1.083289;1.691013;1.041486;1.685605;-0.9526277;0.9499994;-0.9521311;0.9524604;
637952919847381081;1067.539;10;6;4.5;0.1;2.2;800;5.625;-1.083289;1.691012;-1.041772;1.707616;1.083289;1.691013;1.041486;1.685605;
637952919861373208;1068.938;10;6;4.5;0.1;2.2;1399;3.21658327376698;0.9526281;0.9500003;0.9332374;0.9799169;-1.083289;1.691012;-1.041772;1.707616;
637952919892467932;1072.048;10;6;4.5;0.1;2.2;3110;1.44694533762058;-0.7070671;2.342648;-0.6946778;2.321244;0.9526281;0.9500003;0.9332374;0.9799169;
637952919906460059;1073.447;10;6;4.5;0.1;2.2;1400;3.21428571428571;0.3762226;0.4663382;0.3447964;0.4692774;-0.7070671;2.342648;-0.6946778;2.321244;
637952919926453097;1075.446;10;6;3;0.2;1.4;900;3.33333333333333;-0.2394138;0.8422151;-0.2272629;0.8391449;0;2.2;-0.02204886;2.237767;
637952919935444465;1076.346;10;6;3;0.2;1.4;900;3.33333333333333;0.4499513;2.036231;0.4009138;2.031797;-0.2394138;0.8422151;-0.2272629;0.8391449;
637952919943445678;1077.146;10;6;3;0.2;1.4;800;3.75;-0.6062176;1.15;-0.619101;1.16037;0.4499513;2.036231;0.4009138;2.031797;
637952919955437500;1078.345;10;6;3;0.2;1.4;1200;2.5;0.6893654;1.621554;0.6113198;1.67335;-0.6062176;1.15;-0.619101;1.16037;
637952919975420538;1080.344;10;6;3;0.2;1.4;1999;1.50075037518759;-0.6893655;1.621553;-0.6460671;1.613459;0.6893654;1.621554;0.6113198;1.67335;
637952919985422055;1081.344;10;6;3;0.2;1.4;1000;3;0.6062179;1.15;0.5772142;1.136576;-0.6893655;1.621553;-0.6460671;1.613459;
637952919996412708;1082.443;10;6;3;0.2;1.4;1099;2.72975432211101;-0.4499517;2.036231;-0.4598172;2.030872;0.6062179;1.15;0.5772142;1.136576;
637952920010514852;1083.854;10;6;3;0.2;1.4;1411;2.12615166548547;0.2394144;0.8422153;0.2489323;0.905548;-0.4499517;2.036231;-0.4598172;2.030872;
637952920028507584;1085.653;10;6;2;0.6;1.8;900;2.22222222222222;-0.3078177;0.6542765;-0.265691;0.8843654;0;2.4;0.01928767;2.253541;
637952920037511017;1086.553;10;6;2;0.6;1.8;900;2.22222222222222;0.5785087;2.18944;0.4509988;2.266393;-0.3078177;0.6542765;-0.265691;0.8843654;
637952920045495313;1087.352;10;6;2;0.6;1.8;799;2.50312891113892;-0.7794226;1.05;-0.6852937;1.218409;0.5785087;2.18944;0.4509988;2.266393;
637952920064483702;1089.251;10;6;2;0.6;1.8;1899;1.05318588730911;0.8863269;1.656283;0.5967742;1.699557;-0.7794226;1.05;-0.6852937;1.218409;
637952920071483351;1089.951;10;6;2;0.6;1.8;700;2.85714285714286;-0.8863271;1.656283;-0.774604;1.660859;0.8863269;1.656283;0.5967742;1.699557;
637952920079472598;1090.75;10;6;2;0.6;1.8;800;2.5;0.779423;1.05;0.6738663;1.255455;-0.8863271;1.656283;-0.774604;1.660859;
637952920087472231;1091.55;10;6;2;0.6;1.8;800;2.5;-0.5785094;2.18944;-0.4267155;2.021381;0.779423;1.05;0.6738663;1.255455;
637952920101470565;1092.949;10;6;2;0.6;1.8;1399;1.42959256611866;0.3078185;0.6542768;0.2575672;0.8984648;-0.5785094;2.18944;-0.4267155;2.021381;
637952920123448945;1095.148;10;6;4;0.1;1.4;1099;3.63967242948135;-0.2394138;0.8422151;-0.2823719;0.8677971;0;2.2;0.002657566;2.184863;
637952920155433920;1098.347;10;6;4;0.1;1.4;3199;1.25039074710847;0.4499513;2.036231;0.430231;2.018701;-0.2394138;0.8422151;-0.2823719;0.8677971;
637952920165545454;1099.357;10;6;4;0.1;1.4;1011;3.95647873392681;-0.6062176;1.15;-0.5959752;1.126121;0.4499513;2.036231;0.430231;2.018701;
637952920186528645;1101.456;10;6;4;0.1;1.4;2099;1.90566936636494;0.6893654;1.621554;0.6605865;1.604935;-0.6062176;1.15;-0.5959752;1.126121;
637952920200530767;1102.856;10;6;4;0.1;1.4;1400;2.85714285714286;-0.6893655;1.621553;-0.6623066;1.621547;0.6893654;1.621554;0.6605865;1.604935;
637952920215513052;1104.355;10;6;4;0.1;1.4;1499;2.66844563042028;0.6062179;1.15;0.5798305;1.174481;-0.6893655;1.621553;-0.6623066;1.621547;
637952920226504719;1105.454;10;6;4;0.1;1.4;1099;3.63967242948135;-0.4499517;2.036231;-0.4175783;2.000797;0.6062179;1.15;0.5798305;1.174481;
637952920253498823;1108.153;10;6;4;0.1;1.4;2699;1.48203038162282;0.2394144;0.8422153;0.251792;0.84916;-0.4499517;2.036231;-0.4175783;2.000797;
637952920277482463;1110.552;10;6;2.5;0.3;1.4;1400;1.78571428571429;-0.2394138;0.8422151;-0.2446333;0.9207168;0;2.2;-0.005384421;2.14726;
637952920287483983;1111.552;10;6;2.5;0.3;1.4;999;2.5025025025025;0.4499513;2.036231;0.3858911;1.991126;-0.2394138;0.8422151;-0.2446333;0.9207168;
637952920295475198;1112.351;10;6;2.5;0.3;1.4;800;3.125;-0.6062176;1.15;-0.6162789;1.190526;0.4499513;2.036231;0.3858911;1.991126;
637952920302466259;1113.051;10;6;2.5;0.3;1.4;700;3.57142857142857;0.6893654;1.621554;0.5787204;1.606381;-0.6062176;1.15;-0.6162789;1.190526;
637952920310577491;1113.862;10;6;2.5;0.3;1.4;811;3.0826140567201;-0.6893655;1.621553;-0.6392572;1.612638;0.6893654;1.621554;0.5787204;1.606381;
637952920317568552;1114.561;10;6;2.5;0.3;1.4;699;3.57653791130186;0.6062179;1.15;0.6227837;1.151309;-0.6893655;1.621553;-0.6392572;1.612638;
637952920326569924;1115.461;10;6;2.5;0.3;1.4;900;2.77777777777778;-0.4499517;2.036231;-0.4337045;2.039148;0.6062179;1.15;0.6227837;1.151309;
637952920334571137;1116.261;10;6;2.5;0.3;1.4;800;3.125;0.2394144;0.8422153;0.1836369;0.8528807;-0.4499517;2.036231;-0.4337045;2.039148;
637952920357554631;1118.56;10;6;3.5;0.2;2;1199;2.91909924937448;-0.3420197;0.5603072;-0.3526755;0.6426073;0;2.5;-0.02637888;2.451183;
637952920367556150;1119.56;10;6;3.5;0.2;2;1000;3.5;0.6427875;2.266045;0.5910246;2.224391;-0.3420197;0.5603072;-0.3526755;0.6426073;
637952920377537664;1120.558;10;6;3.5;0.2;2;999;3.5035035035035;-0.8660251;0.9999995;-0.8495485;1.05305;0.6427875;2.266045;0.5910246;2.224391;
637952920386539033;1121.458;10;6;3.5;0.2;2;900;3.88888888888889;0.9848077;1.673648;0.8945833;1.665022;-0.8660251;0.9999995;-0.8495485;1.05305;
637952920395530402;1122.358;10;6;3.5;0.2;2;900;3.88888888888889;-0.9848078;1.673648;-0.9799537;1.653072;0.9848077;1.673648;0.8945833;1.665022;
637952920404521766;1123.257;10;6;3.5;0.2;2;899;3.89321468298109;0.8660256;1;0.8229425;1.02127;-0.9848078;1.673648;-0.9799537;1.653072;
637952920429506445;1125.756;10;6;3.5;0.2;2;2499;1.40056022408964;-0.6427882;2.266044;-0.6272877;2.184341;0.8660256;1;0.8229425;1.02127;
637952920445498867;1127.355;10;6;3.5;0.2;2;1599;2.18886804252658;0.3420205;0.5603075;0.2852185;0.5430593;-0.6427882;2.266044;-0.6272877;2.184341;
637952920458500850;1128.655;10;6;1.5;1.1;2;600;2.5;-0.3420197;0.5603072;-0.243337;0.8489342;0;2.5;0.02164892;2.235198;
637952920465501913;1129.355;10;6;1.5;1.1;2;700;2.14285714285714;0.6427875;2.266045;0.3543606;1.946492;-0.3420197;0.5603072;-0.243337;0.8489342;
637952920476479382;1130.454;10;6;1.5;1.1;2;1099;1.36487716105551;-0.8660251;0.9999995;-0.5366305;1.345547;0.6427875;2.266045;0.3543606;1.946492;
637952920488594718;1131.665;10;6;1.5;1.1;2;1211;1.23864574731627;0.9848077;1.673648;0.5463517;1.826844;-0.8660251;0.9999995;-0.5366305;1.345547;
637952920495595783;1132.365;10;6;1.5;1.1;2;700;2.14285714285714;-0.9848078;1.673648;-0.7657917;1.80516;0.9848077;1.673648;0.5463517;1.826844;
637952920502586845;1133.064;10;6;1.5;1.1;2;699;2.14592274678112;0.8660256;1;0.5249615;1.291443;-0.9848078;1.673648;-0.7657917;1.80516;
637952920510578057;1133.864;10;6;1.5;1.1;2;800;1.875;-0.6427882;2.266044;-0.3500623;2.022202;0.8660256;1;0.5249615;1.291443;
637952920516568973;1134.463;10;6;1.5;1.1;2;600;2.5;0.3420205;0.5603075;0.1860266;0.9775938;-0.6427882;2.266044;-0.3500623;2.022202;
637952921007645508;1183.574;10;7;3;0.2;1.4;800;3.75;-0.2394138;0.8422151;-0.276058;0.9076693;0;2.2;0.06850164;2.198116;
637952921015646726;1184.374;10;7;3;0.2;1.4;800;3.75;0.4499513;2.036231;0.4591622;2.012712;-0.2394138;0.8422151;-0.276058;0.9076693;
637952921024638093;1185.273;10;7;3;0.2;1.4;900;3.33333333333333;-0.6062176;1.15;-0.5695653;1.204274;0.4499513;2.036231;0.4591622;2.012712;
637952921033629461;1186.173;10;7;3;0.2;1.4;899;3.33704115684093;0.6893654;1.621554;0.7212033;1.639437;-0.6062176;1.15;-0.5695653;1.204274;
637952921041630675;1186.972;10;7;3;0.2;1.4;800;3.75;-0.6893655;1.621553;-0.6414541;1.641303;0.6893654;1.621554;0.7212033;1.639437;
637952921051622192;1187.972;10;7;3;0.2;1.4;1000;3;0.6062179;1.15;0.5452082;1.133038;-0.6893655;1.621553;-0.6414541;1.641303;
637952921068724795;1189.682;10;7;3;0.2;1.4;1710;1.75438596491228;-0.4499517;2.036231;-0.4172026;2.046466;0.6062179;1.15;0.5452082;1.133038;
637952921082026813;1191.02;10;7;3;0.2;1.4;1338;2.24215246636771;0.2394144;0.8422153;0.2068057;0.9366668;-0.4499517;2.036231;-0.4172026;2.046466;
637952921104700257;1193.28;10;7;4.5;0.1;2.2;1200;3.75;-0.3762217;0.4663379;-0.378088;0.5163028;0;2.6;0.02034216;2.563765;
637952921116702080;1194.48;10;7;4.5;0.1;2.2;1199;3.75312760633862;0.7070663;2.342649;0.6926847;2.309617;-0.3762217;0.4663379;-0.378088;0.5163028;
637952921127943791;1195.611;10;7;4.5;0.1;2.2;1131;3.97877984084881;-0.9526277;0.9499994;-0.9101007;0.9759126;0.7070663;2.342649;0.6926847;2.309617;
637952921138685421;1196.679;10;7;4.5;0.1;2.2;1068;4.21348314606742;1.083289;1.691013;1.092716;1.677586;-0.9526277;0.9499994;-0.9101007;0.9759126;
637952921149997140;1197.817;10;7;4.5;0.1;2.2;1138;3.95430579964851;-1.083289;1.691012;-1.113784;1.717993;1.083289;1.691013;1.092716;1.677586;
637952921160678764;1198.878;10;7;4.5;0.1;2.2;1061;4.24128180961357;0.9526281;0.9500003;0.9166648;0.938506;-1.083289;1.691012;-1.113784;1.717993;
637952921170666938;1199.877;10;7;4.5;0.1;2.2;999;4.5045045045045;-0.7070671;2.342648;-0.7232882;2.344772;0.9526281;0.9500003;0.9166648;0.938506;
637952921193659519;1202.176;10;7;4.5;0.1;2.2;2299;1.9573727707699;0.3762226;0.4663382;0.3891575;0.499066;-0.7070671;2.342648;-0.7232882;2.344772;
637952921213646642;1204.175;10;7;2;0.6;1.8;1199;1.66805671392827;-0.3078177;0.6542765;-0.1906944;0.697373;0;2.4;-0.04245776;2.273175;
637952921220645698;1204.875;10;7;2;0.6;1.8;700;2.85714285714286;0.5785087;2.18944;0.3805757;2.123761;-0.3078177;0.6542765;-0.1906944;0.697373;
637952921227635933;1205.575;10;7;2;0.6;1.8;700;2.85714285714286;-0.7794226;1.05;-0.812508;1.24018;0.5785087;2.18944;0.3805757;2.123761;
637952921234747080;1206.286;10;7;2;0.6;1.8;711;2.81293952180028;0.8863269;1.656283;0.6446921;1.641952;-0.7794226;1.05;-0.812508;1.24018;
637952921240748013;1206.885;10;7;2;0.6;1.8;600;3.33333333333333;-0.8863271;1.656283;-0.7755909;1.704763;0.8863269;1.656283;0.6446921;1.641952;
637952921255130204;1208.331;10;7;2;0.6;1.8;1445;1.3840830449827;0.779423;1.05;0.5297175;1.214871;-0.8863271;1.656283;-0.7755909;1.704763;
637952921261731206;1208.984;10;7;2;0.6;1.8;653;3.06278713629403;-0.5785094;2.18944;-0.4548115;2.11532;0.779423;1.05;0.5297175;1.214871;
637952921267732116;1209.584;10;7;2;0.6;1.8;600;3.33333333333333;0.3078185;0.6542768;0.2808757;0.8484912;-0.5785094;2.18944;-0.4548115;2.11532;
637952921287715151;1211.583;10;7;1.5;1.1;2;599;2.50417362270451;-0.3420197;0.5603072;-0.1922043;0.886627;0;2.5;-0.01655379;2.027742;
637952921299706978;1212.782;10;7;1.5;1.1;2;1200;1.25;0.6427875;2.266045;0.3196387;1.988431;-0.3420197;0.5603072;-0.1922043;0.886627;
637952921305707886;1213.382;10;7;1.5;1.1;2;600;2.5;-0.8660251;0.9999995;-0.5673765;1.273221;0.6427875;2.266045;0.3196387;1.988431;
637952921312698950;1214.082;10;7;1.5;1.1;2;699;2.14592274678112;0.9848077;1.673648;0.5865105;1.672531;-0.8660251;0.9999995;-0.5673765;1.273221;
637952921324700774;1215.281;10;7;1.5;1.1;2;1200;1.25;-0.9848078;1.673648;-0.4519852;1.752312;0.9848077;1.673648;0.5865105;1.672531;
637952921330691680;1215.881;10;7;1.5;1.1;2;599;2.50417362270451;0.8660256;1;0.5777226;1.229802;-0.9848078;1.673648;-0.4519852;1.752312;
637952921343683648;1217.18;10;7;1.5;1.1;2;1299;1.15473441108545;-0.6427882;2.266044;-0.3548786;2.019323;0.8660256;1;0.5777226;1.229802;
637952921350684720;1217.88;10;7;1.5;1.1;2;700;2.14285714285714;0.3420205;0.5603075;0.2468943;0.9778618;-0.6427882;2.266044;-0.3548786;2.019323;
637952921375788534;1220.39;10;7;4;0.1;1.4;1000;4;-0.2394138;0.8422151;-0.2353994;0.8425137;0;2.2;-0.01267983;2.191324;
637952921407762019;1223.588;10;7;4;0.1;1.4;3198;1.25078173858662;0.4499513;2.036231;0.4426968;2.014131;-0.2394138;0.8422151;-0.2353994;0.8425137;
637952921419755261;1224.788;10;7;4;0.1;1.4;1200;3.33333333333333;-0.6062176;1.15;-0.5861474;1.160446;0.4499513;2.036231;0.4426968;2.014131;
637952921429748383;1225.787;10;7;4;0.1;1.4;999;4.004004004004;0.6893654;1.621554;0.6487038;1.629285;-0.6062176;1.15;-0.5861474;1.160446;
637952921440746836;1226.887;10;7;4;0.1;1.4;1099;3.63967242948135;-0.6893655;1.621553;-0.6446496;1.628885;0.6893654;1.621554;0.6487038;1.629285;
637952921474724583;1230.286;10;7;4;0.1;1.4;3399;1.17681671079729;0.6062179;1.15;0.6024215;1.17016;-0.6893655;1.621553;-0.6446496;1.628885;
637952921486723568;1231.485;10;7;4;0.1;1.4;1199;3.33611342785655;-0.4499517;2.036231;-0.4265951;1.997658;0.6062179;1.15;0.6024215;1.17016;
637952921496712503;1232.484;10;7;4;0.1;1.4;1000;4;0.2394144;0.8422153;0.2525079;0.8704602;-0.4499517;2.036231;-0.4265951;1.997658;
637952921515821137;1234.395;10;7;3.5;0.2;2;999;3.5035035035035;-0.3420197;0.5603072;-0.334758;0.6372156;0;2.5;0.01770085;2.472012;
637952921523811200;1235.194;10;7;3.5;0.2;2;800;4.375;0.6427875;2.266045;0.591395;2.233372;-0.3420197;0.5603072;-0.334758;0.6372156;
637952921533810346;1236.194;10;7;3.5;0.2;2;1000;3.5;-0.8660251;0.9999995;-0.8188744;1.063082;0.6427875;2.266045;0.591395;2.233372;
637952921563788817;1239.192;10;7;3.5;0.2;2;2999;1.16705568522841;0.9848077;1.673648;0.9099526;1.67864;-0.8660251;0.9999995;-0.8188744;1.063082;
637952921574784838;1240.292;10;7;3.5;0.2;2;1099;3.18471337579618;-0.9848078;1.673648;-0.9576627;1.651444;0.9848077;1.673648;0.9099526;1.67864;
637952921585776512;1241.391;10;7;3.5;0.2;2;1099;3.18471337579618;0.8660256;1;0.8663996;1.066771;-0.9848078;1.673648;-0.9576627;1.651444;
637952921595778032;1242.391;10;7;3.5;0.2;2;1000;3.5;-0.6427882;2.266044;-0.6130726;2.266613;0.8660256;1;0.8663996;1.066771;
637952921607769850;1243.59;10;7;3.5;0.2;2;1199;2.91909924937448;0.3420205;0.5603075;0.3185844;0.6261276;-0.6427882;2.266044;-0.6130726;2.266613;
637952921627872906;1245.601;10;7;2.5;0.3;1.4;1011;2.47279920870425;-0.2394138;0.8422151;-0.2496018;0.8538409;0;2.2;0.05496057;2.181324;
637952921646855790;1247.499;10;7;2.5;0.3;1.4;1899;1.31648235913639;0.4499513;2.036231;0.3761632;1.93214;-0.2394138;0.8422151;-0.2496018;0.8538409;
637952921655857156;1248.399;10;7;2.5;0.3;1.4;900;2.77777777777778;-0.6062176;1.15;-0.5847676;1.204881;0.4499513;2.036231;0.3761632;1.93214;
637952921664848522;1249.299;10;7;2.5;0.3;1.4;900;2.77777777777778;0.6893654;1.621554;0.7053357;1.64369;-0.6062176;1.15;-0.5847676;1.204881;
637952921674850042;1250.298;10;7;2.5;0.3;1.4;1000;2.5;-0.6893655;1.621553;-0.6674099;1.672553;0.6893654;1.621554;0.7053357;1.64369;
637952921683951426;1251.209;10;7;2.5;0.3;1.4;911;2.74423710208562;0.6062179;1.15;0.6167832;1.196692;-0.6893655;1.621553;-0.6674099;1.672553;
637952921692942794;1252.108;10;7;2.5;0.3;1.4;899;2.78086763070078;-0.4499517;2.036231;-0.4004419;2.076114;0.6062179;1.15;0.6167832;1.196692;
637952921700944009;1252.908;10;7;2.5;0.3;1.4;800;3.125;0.2394144;0.8422153;0.2137748;0.8813142;-0.4499517;2.036231;-0.4004419;2.076114;
