637945377411164681;218.0026;11;0;3.5;0.2;2;900;3.88888888888889;-0.3420197;0.5603072;-0.3416946;0.6594887;0;2.5;0.06305408;2.521086;
637945377427148291;219.6019;11;0;3.5;0.2;2;1599;2.18886804252658;0.6427875;2.266045;0.6198637;2.328355;-0.3420197;0.5603072;-0.3416946;0.6594887;
637945377438140813;220.7013;11;0;3.5;0.2;2;1099;3.18471337579618;-0.8660251;0.9999995;-0.8794219;1.003787;0.6427875;2.266045;0.6198637;2.328355;
637945377451253730;222.0118;11;0;3.5;0.2;2;1311;2.6697177726926;0.9848077;1.673648;0.9878036;1.660976;-0.8660251;0.9999995;-0.8794219;1.003787;
637945377460245762;222.9114;11;0;3.5;0.2;2;900;3.88888888888889;-0.9848078;1.673648;-0.8870888;1.657819;0.9848077;1.673648;0.9878036;1.660976;
637945377475239152;224.4107;11;0;3.5;0.2;2;1499;2.33488992661775;0.8660256;1;0.8870767;1.021898;-0.9848078;1.673648;-0.8870888;1.657819;
637945377490232548;225.91;11;0;3.5;0.2;2;1499;2.33488992661775;-0.6427882;2.266044;-0.5722328;2.224431;0.8660256;1;0.8870767;1.021898;
637945377498224353;226.7098;11;0;3.5;0.2;2;800;4.375;0.3420205;0.5603075;0.2930869;0.6349257;-0.6427882;2.266044;-0.5722328;2.224431;
637945377511227357;228.0091;11;0;1.5;1.1;2;700;2.14285714285714;-0.3420197;0.5603072;-0.2287557;0.650667;0;2.5;0.1437346;2.268977;
637945377516223850;228.5088;11;0;1.5;1.1;2;500;3;0.6427875;2.266045;0.7826284;2.193665;-0.3420197;0.5603072;-0.2287557;0.650667;
637945377521220863;229.0086;11;0;1.5;1.1;2;500;3;-0.8660251;0.9999995;-0.8072174;1.185055;0.6427875;2.266045;0.7826284;2.193665;
637945377526222000;229.5084;11;0;1.5;1.1;2;500;3;0.9848077;1.673648;1.268447;1.62677;-0.8660251;0.9999995;-0.8072174;1.185055;
637945377531213127;230.0083;11;0;1.5;1.1;2;500;3;-0.9848078;1.673648;-0.7237319;1.734129;0.9848077;1.673648;1.268447;1.62677;
637945377538211681;230.7077;11;0;1.5;1.1;2;699;2.14592274678112;0.8660256;1;0.7047429;1.130645;-0.9848078;1.673648;-0.7237319;1.734129;
637945377543206311;231.2074;11;0;1.5;1.1;2;500;3;-0.6427882;2.266044;-0.500771;2.252068;0.8660256;1;0.7047429;1.130645;
637945377548208350;231.7072;11;0;1.5;1.1;2;500;3;0.3420205;0.5603075;0.2256457;0.6715871;-0.6427882;2.266044;-0.500771;2.252068;
637945377576189678;234.506;11;0;4;0.1;1.4;1399;2.85918513223731;-0.2394138;0.8422151;-0.2178399;0.8776637;0;2.2;0.02780271;2.195444;
637945377586191943;235.5055;11;0;4;0.1;1.4;999;4.004004004004;0.4499513;2.036231;0.4489311;2.022972;-0.2394138;0.8422151;-0.2178399;0.8776637;
637945377614288298;238.3157;11;0;4;0.1;1.4;2810;1.42348754448399;-0.6062176;1.15;-0.5675511;1.126455;0.4499513;2.036231;0.4489311;2.022972;
637945377628281461;239.7146;11;0;4;0.1;1.4;1399;2.85918513223731;0.6893654;1.621554;0.6658021;1.591598;-0.6062176;1.15;-0.5675511;1.126455;
637945377664269598;243.3131;11;0;4;0.1;1.4;3599;1.11141983884412;-0.6893655;1.621553;-0.6597806;1.619428;0.6893654;1.621554;0.6658021;1.591598;
637945377690255476;245.912;11;0;4;0.1;1.4;2599;1.5390534821085;0.6062179;1.15;0.5839309;1.160014;-0.6893655;1.621553;-0.6597806;1.619428;
637945377702248189;247.1114;11;0;4;0.1;1.4;1199;3.33611342785655;-0.4499517;2.036231;-0.4947355;2.046649;0.6062179;1.15;0.5839309;1.160014;
637945377715241129;248.4106;11;0;4;0.1;1.4;1299;3.07929176289453;0.2394144;0.8422153;0.2206827;0.8811795;-0.4499517;2.036231;-0.4947355;2.046649;
637945377749228814;251.8092;11;0;4.5;0.1;2.2;1899;2.3696682464455;-0.3762217;0.4663379;-0.3977126;0.4950119;0;2.6;0.01320555;2.57565;
637945377761331553;253.0199;11;0;4.5;0.1;2.2;1211;3.7159372419488;0.7070663;2.342649;0.7329458;2.336864;-0.3762217;0.4663379;-0.3977126;0.4950119;
637945377779325620;254.8189;11;0;4.5;0.1;2.2;1799;2.50138966092273;-0.9526277;0.9499994;-0.9580342;0.9273796;0.7070663;2.342649;0.7329458;2.336864;
637945377791318332;256.0182;11;0;4.5;0.1;2.2;1199;3.75312760633862;1.083289;1.691013;1.079233;1.722167;-0.9526277;0.9499994;-0.9580342;0.9273796;
637945377809312401;257.8177;11;0;4.5;0.1;2.2;1800;2.5;-1.083289;1.691012;-1.047164;1.678634;1.083289;1.691013;1.079233;1.722167;
637945377824295794;259.3166;11;0;4.5;0.1;2.2;1499;3.00200133422282;0.9526281;0.9500003;0.9102468;0.9765388;-1.083289;1.691012;-1.047164;1.678634;
637945377851283046;262.0156;11;0;4.5;0.1;2.2;2699;1.66728417932568;-0.7070671;2.342648;-0.686376;2.372713;0.9526281;0.9500003;0.9102468;0.9765388;
637945377865284071;263.4152;11;0;4.5;0.1;2.2;1400;3.21428571428571;0.3762226;0.4663382;0.3497933;0.490585;-0.7070671;2.342648;-0.686376;2.372713;
637945377881273207;265.0144;11;0;2.5;0.3;1.4;799;3.12891113892365;-0.2394138;0.8422151;-0.1647091;0.9254031;0;2.2;-0.01041647;2.138269;
637945377905378655;267.4241;11;0;2.5;0.3;1.4;2410;1.03734439834025;0.4499513;2.036231;0.4146666;2.032549;-0.2394138;0.8422151;-0.1647091;0.9254031;
637945377915370917;268.4238;11;0;2.5;0.3;1.4;1000;2.5;-0.6062176;1.15;-0.5947907;1.232911;0.4499513;2.036231;0.4146666;2.032549;
637945377925361210;269.4233;11;0;2.5;0.3;1.4;1000;2.5;0.6893654;1.621554;0.5580585;1.59584;-0.6062176;1.15;-0.5947907;1.232911;
637945377941473659;271.0337;11;0;2.5;0.3;1.4;1610;1.5527950310559;-0.6893655;1.621553;-0.6686891;1.601904;0.6893654;1.621554;0.5580585;1.59584;
637945377949464221;271.8332;11;0;2.5;0.3;1.4;800;3.125;0.6062179;1.15;0.6517977;1.249891;-0.6893655;1.621553;-0.6686891;1.601904;
637945377956465806;272.5329;11;0;2.5;0.3;1.4;700;3.57142857142857;-0.4499517;2.036231;-0.4609601;2.000089;0.6062179;1.15;0.6517977;1.249891;
637945377963460169;273.2326;11;0;2.5;0.3;1.4;700;3.57142857142857;0.2394144;0.8422153;0.3169363;0.9125164;-0.4499517;2.036231;-0.4609601;2.000089;
637945377978502224;274.7363;11;0;3;0.2;1.4;758;3.95778364116095;-0.2394138;0.8422151;-0.2865729;0.901222;0;2.2;0.009000819;2.103225;
637945377985443788;275.4314;11;0;3;0.2;1.4;695;4.31654676258993;0.4499513;2.036231;0.4054846;2.012998;-0.2394138;0.8422151;-0.2865729;0.901222;
637945377992445373;276.1312;11;0;3;0.2;1.4;700;4.28571428571429;-0.6062176;1.15;-0.6372432;1.208097;0.4499513;2.036231;0.4054846;2.012998;
637945378000437178;276.9309;11;0;3;0.2;1.4;800;3.75;0.6893654;1.621554;0.731371;1.617769;-0.6062176;1.15;-0.6372432;1.208097;
637945378007438764;277.6306;11;0;3;0.2;1.4;700;4.28571428571429;-0.6893655;1.621553;-0.7633121;1.624017;0.6893654;1.621554;0.731371;1.617769;
637945378015430571;278.4301;11;0;3;0.2;1.4;800;3.75;0.6062179;1.15;0.530656;1.143511;-0.6893655;1.621553;-0.7633121;1.624017;
637945378022542181;279.1409;11;0;3;0.2;1.4;711;4.21940928270042;-0.4499517;2.036231;-0.5229635;2.03566;0.6062179;1.15;0.530656;1.143511;
637945378030533988;279.9406;11;0;3;0.2;1.4;800;3.75;0.2394144;0.8422153;0.1519454;0.840237;-0.4499517;2.036231;-0.5229635;2.03566;
637945378042536704;281.1399;11;0;2;0.6;1.8;600;3.33333333333333;-0.3078177;0.6542765;-0.172865;0.7932401;0;2.4;-0.02859172;2.309481;
637945378050528508;281.9396;11;0;2;0.6;1.8;800;2.5;0.5785087;2.18944;0.5344082;2.330618;-0.3078177;0.6542765;-0.172865;0.7932401;
637945378056529867;282.5393;11;0;2;0.6;1.8;600;3.33333333333333;-0.7794226;1.05;-0.7137764;1.208368;0.5785087;2.18944;0.5344082;2.330618;
637945378063521447;283.239;11;0;2;0.6;1.8;700;2.85714285714286;0.8863269;1.656283;0.8356472;1.673514;-0.7794226;1.05;-0.7137764;1.208368;
637945378070523031;283.939;11;0;2;0.6;1.8;700;2.85714285714286;-0.8863271;1.656283;-0.9317104;1.733087;0.8863269;1.656283;0.8356472;1.673514;
637945378078514839;284.7386;11;0;2;0.6;1.8;800;2.5;0.779423;1.05;0.5518797;1.100125;-0.8863271;1.656283;-0.9317104;1.733087;
637945378086516648;285.5383;11;0;2;0.6;1.8;800;2.5;-0.5785094;2.18944;-0.5062684;2.24882;0.779423;1.05;0.5518797;1.100125;
637945378092508008;286.138;11;0;2;0.6;1.8;600;3.33333333333333;0.3078185;0.6542768;0.2811398;0.8921527;-0.5785094;2.18944;-0.5062684;2.24882;
637945379160110495;392.8993;11;1;4.5;0.1;2.2;1399;3.21658327376698;-0.3762217;0.4663379;-0.3567593;0.5006362;0;2.6;0.00175209;2.554558;
637945379190097276;395.8981;11;1;4.5;0.1;2.2;2999;1.50050016672224;0.7070663;2.342649;0.6905091;2.345054;-0.3762217;0.4663379;-0.3567593;0.5006362;
637945379212092253;398.097;11;1;4.5;0.1;2.2;2199;2.04638472032742;-0.9526277;0.9499994;-0.9125255;0.9798343;0.7070663;2.342649;0.6905091;2.345054;
637945379227076013;399.5962;11;1;4.5;0.1;2.2;1499;3.00200133422282;1.083289;1.691013;1.044551;1.659499;-0.9526277;0.9499994;-0.9125255;0.9798343;
637945379247210569;401.6085;11;1;4.5;0.1;2.2;2012;2.23658051689861;-1.083289;1.691012;-1.048866;1.707221;1.083289;1.691013;1.044551;1.659499;
637945379260183500;402.9058;11;1;4.5;0.1;2.2;1297;3.46954510408635;0.9526281;0.9500003;0.9897404;0.977351;-1.083289;1.691012;-1.048866;1.707221;
637945379272176212;404.1053;11;1;4.5;0.1;2.2;1200;3.75;-0.7070671;2.342648;-0.6822353;2.334746;0.9526281;0.9500003;0.9897404;0.977351;
637945379284488993;405.3447;11;1;4.5;0.1;2.2;1239;3.6319612590799;0.3762226;0.4663382;0.3477015;0.507315;-0.7070671;2.342648;-0.6822353;2.334746;
637945379313155486;408.2036;11;1;4;0.1;1.4;1599;2.50156347717323;-0.2394138;0.8422151;-0.2725308;0.8721256;0;2.2;0.0297319;2.174786;
637945379325148194;409.4027;11;1;4;0.1;1.4;1199;3.33611342785655;0.4499513;2.036231;0.4406224;2.003904;-0.2394138;0.8422151;-0.2725308;0.8721256;
637945379341141811;411.0021;11;1;4;0.1;1.4;1599;2.50156347717323;-0.6062176;1.15;-0.6040343;1.187122;0.4499513;2.036231;0.4406224;2.003904;
637945379353134523;412.2016;11;1;4;0.1;1.4;1199;3.33611342785655;0.6893654;1.621554;0.6820994;1.613621;-0.6062176;1.15;-0.6040343;1.187122;
637945379395114017;416.3996;11;1;4;0.1;1.4;4198;0.952834683182468;-0.6893655;1.621553;-0.650276;1.647126;0.6893654;1.621554;0.6820994;1.613621;
637945379404226072;417.3102;11;1;4;0.1;1.4;911;4.39077936333699;0.6062179;1.15;0.6304364;1.149493;-0.6893655;1.621553;-0.650276;1.647126;
637945379413218112;418.2097;11;1;4;0.1;1.4;900;4.44444444444444;-0.4499517;2.036231;-0.4495847;2.034248;0.6062179;1.15;0.6304364;1.149493;
637945379421209919;419.0094;11;1;4;0.1;1.4;800;5;0.2394144;0.8422153;0.248203;0.8736932;-0.4499517;2.036231;-0.4495847;2.034248;
637945379435213086;420.4088;11;1;3;0.2;1.4;700;4.28571428571429;-0.2394138;0.8422151;-0.2307052;0.7903273;0;2.2;0.002535161;2.166502;
637945379449196249;421.808;11;1;3;0.2;1.4;1399;2.14438884917798;0.4499513;2.036231;0.4056094;2.027753;-0.2394138;0.8422151;-0.2307052;0.7903273;
637945379458198278;422.7077;11;1;3;0.2;1.4;900;3.33333333333333;-0.6062176;1.15;-0.6411474;1.216595;0.4499513;2.036231;0.4056094;2.027753;
637945379466405256;423.536;11;1;3;0.2;1.4;828;3.6231884057971;0.6893654;1.621554;0.7738588;1.623549;-0.6062176;1.15;-0.6411474;1.216595;
637945379473191093;424.2071;11;1;3;0.2;1.4;671;4.47093889716841;-0.6893655;1.621553;-0.6664049;1.663425;0.6893654;1.621554;0.7738588;1.623549;
637945379490181331;425.9062;11;1;3;0.2;1.4;1699;1.76574455562095;0.6062179;1.15;0.6100516;1.078077;-0.6893655;1.621553;-0.6664049;1.663425;
637945379499183840;426.806;11;1;3;0.2;1.4;900;3.33333333333333;-0.4499517;2.036231;-0.4627189;2.121504;0.6062179;1.15;0.6100516;1.078077;
637945379512176307;428.1051;11;1;3;0.2;1.4;1299;2.3094688221709;0.2394144;0.8422153;0.1934441;0.9024628;-0.4499517;2.036231;-0.4627189;2.121504;
637945379526167926;429.5045;11;1;2;0.6;1.8;699;2.86123032904149;-0.3078177;0.6542765;-0.2012037;0.7929281;0;2.4;0.1466494;2.436331;
637945379531159058;430.0044;11;1;2;0.6;1.8;500;4;0.5785087;2.18944;0.6425362;2.013364;-0.3078177;0.6542765;-0.2012037;0.7929281;
637945379537160413;430.604;11;1;2;0.6;1.8;600;3.33333333333333;-0.7794226;1.05;-0.6464483;1.122746;0.5785087;2.18944;0.6425362;2.013364;
637945379555264508;432.4144;11;1;2;0.6;1.8;1810;1.10497237569061;0.8863269;1.656283;0.7634501;1.665191;-0.7794226;1.05;-0.6464483;1.122746;
637945379562266090;433.1143;11;1;2;0.6;1.8;700;2.85714285714286;-0.8863271;1.656283;-0.9530869;1.677105;0.8863269;1.656283;0.7634501;1.665191;
637945379569257673;433.8136;11;1;2;0.6;1.8;699;2.86123032904149;0.779423;1.05;0.7888319;1.104676;-0.8863271;1.656283;-0.9530869;1.677105;
637945379575249027;434.4133;11;1;2;0.6;1.8;600;3.33333333333333;-0.5785094;2.18944;-0.5970148;2.120621;0.779423;1.05;0.7888319;1.104676;
637945379583250837;435.213;11;1;2;0.6;1.8;800;2.5;0.3078185;0.6542768;0.1658747;0.7343541;-0.5785094;2.18944;-0.5970148;2.120621;
637945379596243778;436.5125;11;1;2.5;0.3;1.4;600;4.16666666666667;-0.2394138;0.8422151;-0.230363;0.8239229;0;2.2;-0.02431509;2.140365;
637945379603355382;437.2232;11;1;2.5;0.3;1.4;711;3.51617440225035;0.4499513;2.036231;0.3944666;2.010001;-0.2394138;0.8422151;-0.230363;0.8239229;
637945379608346512;437.723;11;1;2.5;0.3;1.4;500;5;-0.6062176;1.15;-0.5841016;1.214962;0.4499513;2.036231;0.3944666;2.010001;
637945379614347870;438.3226;11;1;2.5;0.3;1.4;600;4.16666666666667;0.6893654;1.621554;0.6804721;1.524766;-0.6062176;1.15;-0.5841016;1.214962;
637945379622339677;439.1223;11;1;2.5;0.3;1.4;800;3.125;-0.6893655;1.621553;-0.7751932;1.676928;0.6893654;1.621554;0.6804721;1.524766;
637945379633342166;440.2218;11;1;2.5;0.3;1.4;1100;2.27272727272727;0.6062179;1.15;0.5098863;1.220539;-0.6893655;1.621553;-0.7751932;1.676928;
637945379639333522;440.8217;11;1;2.5;0.3;1.4;600;4.16666666666667;-0.4499517;2.036231;-0.3691165;2.084093;0.6062179;1.15;0.5098863;1.220539;
637945379648335557;441.7214;11;1;2.5;0.3;1.4;900;2.77777777777778;0.2394144;0.8422153;0.1257512;0.8312565;-0.4499517;2.036231;-0.3691165;2.084093;
637945379659328042;442.8206;11;1;1.5;1.1;2;599;2.50417362270451;-0.3420197;0.5603072;-0.1493708;1.003753;0;2.5;0.0309407;2.224782;
637945379664329170;443.3205;11;1;1.5;1.1;2;500;3;0.6427875;2.266045;0.49523;2.018986;-0.3420197;0.5603072;-0.1493708;1.003753;
637945379678432365;444.7309;11;1;1.5;1.1;2;1410;1.06382978723404;-0.8660251;0.9999995;-0.7213807;1.284303;0.6427875;2.266045;0.49523;2.018986;
637945379685423945;445.4307;11;1;1.5;1.1;2;700;2.14285714285714;0.9848077;1.673648;0.5304095;1.589434;-0.8660251;0.9999995;-0.7213807;1.284303;
637945379692425530;446.1302;11;1;1.5;1.1;2;699;2.14592274678112;-0.9848078;1.673648;-1.14939;1.632193;0.9848077;1.673648;0.5304095;1.589434;
637945379699417110;446.83;11;1;1.5;1.1;2;700;2.14285714285714;0.8660256;1;0.8749799;1.352664;-0.9848078;1.673648;-1.14939;1.632193;
637945379706418693;447.5296;11;1;1.5;1.1;2;700;2.14285714285714;-0.6427882;2.266044;-0.5479546;2.112467;0.8660256;1;0.8749799;1.352664;
637945379714410501;448.3291;11;1;1.5;1.1;2;799;1.87734668335419;0.3420205;0.5603075;0.156719;0.7832667;-0.6427882;2.266044;-0.5479546;2.112467;
637945379733404797;450.2285;11;1;3.5;0.2;2;1100;3.18181818181818;-0.3420197;0.5603072;-0.3939314;0.5741798;0;2.5;-0.01666472;2.404709;
637945379741396598;451.028;11;1;3.5;0.2;2;800;4.375;0.6427875;2.266045;0.6503442;2.202403;-0.3420197;0.5603072;-0.3939314;0.5741798;
637945379765502060;453.4379;11;1;3.5;0.2;2;2410;1.45228215767635;-0.8660251;0.9999995;-0.7980687;1.037049;0.6427875;2.266045;0.6503442;2.202403;
637945379777494770;454.6375;11;1;3.5;0.2;2;1200;2.91666666666667;0.9848077;1.673648;1.01061;1.632448;-0.8660251;0.9999995;-0.7980687;1.037049;
637945379785486576;455.4371;11;1;3.5;0.2;2;800;4.375;-0.9848078;1.673648;-0.898616;1.722071;0.9848077;1.673648;1.01061;1.632448;
637945379801480193;457.0364;11;1;3.5;0.2;2;1599;2.18886804252658;0.8660256;1;0.846572;0.9805033;-0.9848078;1.673648;-0.898616;1.722071;
637945379824475391;459.3354;11;1;3.5;0.2;2;2299;1.52240104393214;-0.6427882;2.266044;-0.631354;2.189829;0.8660256;1;0.846572;0.9805033;
637945379835474576;460.4351;11;1;3.5;0.2;2;1100;3.18181818181818;0.3420205;0.5603075;0.314568;0.6101989;-0.6427882;2.266044;-0.631354;2.189829;
637945380474854536;524.3717;11;2;2.5;0.3;1.4;689;3.62844702467344;-0.2394138;0.8422151;-0.1565003;0.8104608;0;2.2;-0.08627251;2.216203;
637945380488847695;525.7712;11;2;2.5;0.3;1.4;1399;1.78699070764832;0.4499513;2.036231;0.5598418;2.053581;-0.2394138;0.8422151;-0.1565003;0.8104608;
637945380495839277;526.4708;11;2;2.5;0.3;1.4;700;3.57142857142857;-0.6062176;1.15;-0.562128;1.190486;0.4499513;2.036231;0.5598418;2.053581;
637945380501950661;527.0817;11;2;2.5;0.3;1.4;611;4.09165302782324;0.6893654;1.621554;0.7400868;1.589423;-0.6062176;1.15;-0.562128;1.190486;
637945380507831992;527.6702;11;2;2.5;0.3;1.4;589;4.24448217317487;-0.6893655;1.621553;-0.7636137;1.66352;0.6893654;1.621554;0.7400868;1.589423;
637945380526826287;529.5692;11;2;2.5;0.3;1.4;1899;1.31648235913639;0.6062179;1.15;0.6580217;1.184275;-0.6893655;1.621553;-0.7636137;1.66352;
637945380541929705;531.0798;11;2;2.5;0.3;1.4;1511;1.65453342157512;-0.4499517;2.036231;-0.5286417;1.939985;0.6062179;1.15;0.6580217;1.184275;
637945380548161111;531.7117;11;2;2.5;0.3;1.4;632;3.95569620253165;0.2394144;0.8422153;0.2993149;0.9795873;-0.4499517;2.036231;-0.5286417;1.939985;
637945380571897705;534.0782;11;2;4;0.1;1.4;1099;3.63967242948135;-0.2394138;0.8422151;-0.2776822;0.8562496;0;2.2;0.02852562;2.164133;
637945380582900190;535.1778;11;2;4;0.1;1.4;1099;3.63967242948135;0.4499513;2.036231;0.4568717;2.010643;-0.2394138;0.8422151;-0.2776822;0.8562496;
637945380594172743;536.3133;11;2;4;0.1;1.4;1136;3.52112676056338;-0.6062176;1.15;-0.5582324;1.138077;0.4499513;2.036231;0.4568717;2.010643;
637945380610886521;537.9765;11;2;4;0.1;1.4;1663;2.40529164161155;0.6893654;1.621554;0.6909807;1.64993;-0.6062176;1.15;-0.5582324;1.138077;
637945380626876813;539.5757;11;2;4;0.1;1.4;1599;2.50156347717323;-0.6893655;1.621553;-0.6451183;1.624952;0.6893654;1.621554;0.6909807;1.64993;
637945380643982379;541.2861;11;2;4;0.1;1.4;1710;2.33918128654971;0.6062179;1.15;0.6207353;1.183716;-0.6893655;1.621553;-0.6451183;1.624952;
637945380661238974;543.0198;11;2;4;0.1;1.4;1734;2.30680507497117;-0.4499517;2.036231;-0.4149151;2.069776;0.6062179;1.15;0.6207353;1.183716;
637945380693956367;546.2838;11;2;4;0.1;1.4;3264;1.22549019607843;0.2394144;0.8422153;0.2297188;0.8900877;-0.4499517;2.036231;-0.4149151;2.069776;
637945380706949315;547.5833;11;2;1.5;1.1;2;600;2.5;-0.3420197;0.5603072;-0.06136749;0.8301084;0;2.5;0.1712147;2.119109;
637945380711950443;548.0832;11;2;1.5;1.1;2;500;3;0.6427875;2.266045;0.5102485;1.973912;-0.3420197;0.5603072;-0.06136749;0.8301084;
637945380716951573;548.5828;11;2;1.5;1.1;2;500;3;-0.8660251;0.9999995;-0.5395417;1.215838;0.6427875;2.266045;0.5102485;1.973912;
637945380722942930;549.1825;11;2;1.5;1.1;2;600;2.5;0.9848077;1.673648;0.8584687;1.636638;-0.8660251;0.9999995;-0.5395417;1.215838;
637945380740937000;550.9816;11;2;1.5;1.1;2;1799;0.833796553640912;-0.9848078;1.673648;-0.8714528;1.698377;0.9848077;1.673648;0.8584687;1.636638;
637945380747938582;551.6815;11;2;1.5;1.1;2;700;2.14285714285714;0.8660256;1;0.6042151;1.245697;-0.9848078;1.673648;-0.8714528;1.698377;
637945380763041996;553.1918;11;2;1.5;1.1;2;1510;0.993377483443709;-0.6427882;2.266044;-0.4146632;2.053386;0.8660256;1;0.6042151;1.245697;
637945380770033579;553.8915;11;2;1.5;1.1;2;700;2.14285714285714;0.3420205;0.5603075;0.2658741;0.9109977;-0.6427882;2.266044;-0.4146632;2.053386;
637945380792028552;556.0907;11;2;3.5;0.2;2;1000;3.5;-0.3420197;0.5603072;-0.327651;0.5336282;0;2.5;-0.02099679;2.422946;
637945380800020360;556.89;11;2;3.5;0.2;2;799;4.38047559449312;0.6427875;2.266045;0.5869896;2.259299;-0.3420197;0.5603072;-0.327651;0.5336282;
637945380809012396;557.7897;11;2;3.5;0.2;2;900;3.88888888888889;-0.8660251;0.9999995;-0.8050584;0.9916959;0.6427875;2.266045;0.5869896;2.259299;
637945380816334052;558.5294;11;2;3.5;0.2;2;740;4.72972972972973;0.9848077;1.673648;0.9396907;1.585027;-0.8660251;0.9999995;-0.8050584;0.9916959;
637945380825006011;559.389;11;2;3.5;0.2;2;860;4.06976744186047;-0.9848078;1.673648;-0.9931443;1.748118;0.9848077;1.673648;0.9396907;1.585027;
637945380831007368;559.9886;11;2;3.5;0.2;2;600;5.83333333333333;0.8660256;1;0.9411228;0.9681684;-0.9848078;1.673648;-0.9931443;1.748118;
637945380847000985;561.5878;11;2;3.5;0.2;2;1599;2.18886804252658;-0.6427882;2.266044;-0.7068624;2.258183;0.8660256;1;0.9411228;0.9681684;
637945380853992568;562.2877;11;2;3.5;0.2;2;700;5;0.3420205;0.5603075;0.3467852;0.5475438;-0.6427882;2.266044;-0.7068624;2.258183;
637945380865985279;563.4871;11;2;2;0.6;1.8;500;4;-0.3078177;0.6542765;-0.3370444;0.9159335;0;2.4;0.04252129;2.51993;
637945380871986638;564.0865;11;2;2;0.6;1.8;599;3.33889816360601;0.5785087;2.18944;0.7300504;2.115804;-0.3078177;0.6542765;-0.3370444;0.9159335;
637945380877977991;564.6864;11;2;2;0.6;1.8;600;3.33333333333333;-0.7794226;1.05;-0.9283248;1.076219;0.5785087;2.18944;0.7300504;2.115804;
637945380882979123;565.1864;11;2;2;0.6;1.8;500;4;0.8863269;1.656283;0.7804066;1.650219;-0.7794226;1.05;-0.9283248;1.076219;
637945380886980028;565.5859;11;2;2;0.6;1.8;399;5.0125313283208;-0.8863271;1.656283;-0.6536905;1.780994;0.8863269;1.656283;0.7804066;1.650219;
637945380893981611;566.2856;11;2;2;0.6;1.8;700;2.85714285714286;0.779423;1.05;0.5917174;1.086117;-0.8863271;1.656283;-0.6536905;1.780994;
637945380898972743;566.7856;11;2;2;0.6;1.8;500;4;-0.5785094;2.18944;-0.6057487;2.162502;0.779423;1.05;0.5917174;1.086117;
637945380904974096;567.3851;11;2;2;0.6;1.8;599;3.33889816360601;0.3078185;0.6542768;0.3780296;0.7617918;-0.5785094;2.18944;-0.6057487;2.162502;
637945380932065272;570.0949;11;2;4.5;0.1;2.2;1199;3.75312760633862;-0.3762217;0.4663379;-0.3643636;0.5136783;0;2.6;0.00471474;2.624912;
637945380941067300;570.9945;11;2;4.5;0.1;2.2;900;5;0.7070663;2.342649;0.7006227;2.304724;-0.3762217;0.4663379;-0.3643636;0.5136783;
637945380961053555;572.9936;11;2;4.5;0.1;2.2;1999;2.25112556278139;-0.9526277;0.9499994;-0.9700556;0.9702096;0.7070663;2.342649;0.7006227;2.304724;
637945380987045349;575.5924;11;2;4.5;0.1;2.2;2599;1.73143516737207;1.083289;1.691013;1.033501;1.686561;-0.9526277;0.9499994;-0.9700556;0.9702096;
637945380997038836;576.592;11;2;4.5;0.1;2.2;1000;4.5;-1.083289;1.691012;-1.066645;1.664845;1.083289;1.691013;1.033501;1.686561;
637945381020033557;578.8909;11;2;4.5;0.1;2.2;2299;1.9573727707699;0.9526281;0.9500003;0.9654125;0.9388385;-1.083289;1.691012;-1.066645;1.664845;
637945381060116823;582.9001;11;2;4.5;0.1;2.2;4009;1.12247443252681;-0.7070671;2.342648;-0.7290837;2.298668;0.9526281;0.9500003;0.9654125;0.9388385;
637945381071397568;584.0355;11;2;4.5;0.1;2.2;1135;3.9647577092511;0.3762226;0.4663382;0.3845242;0.4262264;-0.7070671;2.342648;-0.7290837;2.298668;
637945381092113321;586.0988;11;2;3;0.2;1.4;800;3.75;-0.2394138;0.8422151;-0.2681797;0.8453978;0;2.2;0.003892602;2.18191;
637945381098104676;586.6986;11;2;3;0.2;1.4;600;5;0.4499513;2.036231;0.41078;2.059823;-0.2394138;0.8422151;-0.2681797;0.8453978;
637945381106096483;587.4981;11;2;3;0.2;1.4;799;3.75469336670839;-0.6062176;1.15;-0.6820558;1.172007;0.4499513;2.036231;0.41078;2.059823;
637945381112437921;588.1396;11;2;3;0.2;1.4;642;4.67289719626168;0.6893654;1.621554;0.7585546;1.574598;-0.6062176;1.15;-0.6820558;1.172007;
637945381133082589;590.1967;11;2;3;0.2;1.4;2057;1.45843461351483;-0.6893655;1.621553;-0.6881194;1.604062;0.6893654;1.621554;0.7585546;1.574598;
637945381141084397;590.9963;11;2;3;0.2;1.4;800;3.75;0.6062179;1.15;0.6859995;1.163503;-0.6893655;1.621553;-0.6881194;1.604062;
637945381147075752;591.5961;11;2;3;0.2;1.4;600;5;-0.4499517;2.036231;-0.4447244;2.079191;0.6062179;1.15;0.6859995;1.163503;
637945381156077790;592.4956;11;2;3;0.2;1.4;900;3.33333333333333;0.2394144;0.8422153;0.1557292;0.8208805;-0.4499517;2.036231;-0.4447244;2.079191;
637945381919292498;668.816;11;3;4.5;0.1;2.2;3198;1.40712945590994;-0.3762217;0.4663379;-0.3748626;0.4935751;0;2.6;-0.01260856;2.595344;
637945381945638454;671.457;11;3;4.5;0.1;2.2;2641;1.70390003786445;0.7070663;2.342649;0.7448806;2.319331;-0.3762217;0.4663379;-0.3748626;0.4935751;
637945381959381566;672.8251;11;3;4.5;0.1;2.2;1368;3.28947368421053;-0.9526277;0.9499994;-0.9285954;0.99274;0.7070663;2.342649;0.7448806;2.319331;
637945381991368796;676.0235;11;3;4.5;0.1;2.2;3198;1.40712945590994;1.083289;1.691013;1.037496;1.683095;-0.9526277;0.9499994;-0.9285954;0.99274;
637945382011363319;678.0229;11;3;4.5;0.1;2.2;1999;2.25112556278139;-1.083289;1.691012;-1.070779;1.720271;1.083289;1.691013;1.037496;1.683095;
637945382019355126;678.8224;11;3;4.5;0.1;2.2;800;5.625;0.9526281;0.9500003;0.9340094;0.9840177;-1.083289;1.691012;-1.070779;1.720271;
637945382039339647;680.8213;11;3;4.5;0.1;2.2;1999;2.25112556278139;-0.7070671;2.342648;-0.6735157;2.346448;0.9526281;0.9500003;0.9340094;0.9840177;
637945382056343491;682.5206;11;3;4.5;0.1;2.2;1699;2.64861683343143;0.3762226;0.4663382;0.365698;0.4654793;-0.7070671;2.342648;-0.6735157;2.346448;
637945382086330273;685.5193;11;3;3;0.2;1.4;1299;2.3094688221709;-0.2394138;0.8422151;-0.1754364;0.9106946;0;2.2;-0.01395245;2.272694;
637945382100410855;686.9297;11;3;3;0.2;1.4;1410;2.12765957446809;0.4499513;2.036231;0.4218843;2.007746;-0.2394138;0.8422151;-0.1754364;0.9106946;
637945382120403380;688.9288;11;3;3;0.2;1.4;1999;1.50075037518759;-0.6062176;1.15;-0.6162699;1.143222;0.4499513;2.036231;0.4218843;2.007746;
637945382131405868;690.0283;11;3;3;0.2;1.4;1100;2.72727272727273;0.6893654;1.621554;0.6810551;1.570258;-0.6062176;1.15;-0.6162699;1.143222;
637945382139397676;690.8279;11;3;3;0.2;1.4;800;3.75;-0.6893655;1.621553;-0.6798326;1.641062;0.6893654;1.621554;0.6810551;1.570258;
637945382148392063;691.7274;11;3;3;0.2;1.4;899;3.33704115684093;0.6062179;1.15;0.5089777;1.139704;-0.6893655;1.621553;-0.6798326;1.641062;
637945382171493155;694.0375;11;3;3;0.2;1.4;2310;1.2987012987013;-0.4499517;2.036231;-0.4986399;2.028335;0.6062179;1.15;0.5089777;1.139704;
637945382188491018;695.7369;11;3;3;0.2;1.4;1699;1.76574455562095;0.2394144;0.8422153;0.2101118;0.9228808;-0.4499517;2.036231;-0.4986399;2.028335;
637945382204484546;697.3361;11;3;2.5;0.3;1.4;800;3.125;-0.2394138;0.8422151;-0.2518057;0.8774219;0;2.2;0.02496536;2.110158;
637945382223468839;699.235;11;3;2.5;0.3;1.4;1899;1.31648235913639;0.4499513;2.036231;0.3918537;1.958856;-0.2394138;0.8422151;-0.2518057;0.8774219;
637945382238462231;700.7345;11;3;2.5;0.3;1.4;1500;1.66666666666667;-0.6062176;1.15;-0.5664289;1.197297;0.4499513;2.036231;0.3918537;1.958856;
637945382249454716;701.834;11;3;2.5;0.3;1.4;1100;2.27272727272727;0.6893654;1.621554;0.6757278;1.635116;-0.6062176;1.15;-0.5664289;1.197297;
637945382265448333;703.4331;11;3;2.5;0.3;1.4;1599;1.56347717323327;-0.6893655;1.621553;-0.5548386;1.672554;0.6893654;1.621554;0.6757278;1.635116;
637945382283442404;705.2324;11;3;2.5;0.3;1.4;1799;1.38966092273485;0.6062179;1.15;0.6104411;1.209807;-0.6893655;1.621553;-0.5548386;1.672554;
637945382292434439;706.1318;11;3;2.5;0.3;1.4;899;2.78086763070078;-0.4499517;2.036231;-0.4015131;2.136616;0.6062179;1.15;0.6104411;1.209807;
637945382302436698;707.1313;11;3;2.5;0.3;1.4;1000;2.5;0.2394144;0.8422153;0.1981654;0.9092294;-0.4499517;2.036231;-0.4015131;2.136616;
637945382314429411;708.3311;11;3;1.5;1.1;2;500;3;-0.3420197;0.5603072;-0.2713299;0.8116114;0;2.5;0.07630514;2.178478;
637945382320430768;708.9308;11;3;1.5;1.1;2;600;2.5;0.6427875;2.266045;0.5572557;2.161487;-0.3420197;0.5603072;-0.2713299;0.8116114;
637945382325531922;709.4415;11;3;1.5;1.1;2;511;2.93542074363992;-0.8660251;0.9999995;-0.8540194;1.335862;0.6427875;2.266045;0.5572557;2.161487;
637945382330533055;709.9412;11;3;1.5;1.1;2;500;3;0.9848077;1.673648;0.7724051;1.74509;-0.8660251;0.9999995;-0.8540194;1.335862;
637945382335534183;710.441;11;3;1.5;1.1;2;500;3;-0.9848078;1.673648;-0.7417873;1.729222;0.9848077;1.673648;0.7724051;1.74509;
637945382341525540;711.0406;11;3;1.5;1.1;2;600;2.5;0.8660256;1;0.4492823;1.168016;-0.9848078;1.673648;-0.7417873;1.729222;
637945382346526672;711.5405;11;3;1.5;1.1;2;500;3;-0.6427882;2.266044;-0.4806796;2.060282;0.8660256;1;0.4492823;1.168016;
637945382352518027;712.1403;11;3;1.5;1.1;2;600;2.5;0.3420205;0.5603075;0.3769229;0.9827862;-0.6427882;2.266044;-0.4806796;2.060282;
637945382375513220;714.4391;11;3;2;0.6;1.8;800;2.5;-0.3078177;0.6542765;-0.2928383;0.8316078;0;2.4;-0.01294113;2.150286;
637945382382504807;715.1389;11;3;2;0.6;1.8;700;2.85714285714286;0.5785087;2.18944;0.7138929;2.272558;-0.3078177;0.6542765;-0.2928383;0.8316078;
637945382390506618;715.9385;11;3;2;0.6;1.8;800;2.5;-0.7794226;1.05;-0.6302852;1.20109;0.5785087;2.18944;0.7138929;2.272558;
637945382396497971;716.5381;11;3;2;0.6;1.8;600;3.33333333333333;0.8863269;1.656283;1.062881;1.710551;-0.7794226;1.05;-0.6302852;1.20109;
637945382403499556;717.2379;11;3;2;0.6;1.8;700;2.85714285714286;-0.8863271;1.656283;-1.009411;1.72208;0.8863269;1.656283;1.062881;1.710551;
637945382409500907;717.8377;11;3;2;0.6;1.8;600;3.33333333333333;0.779423;1.05;0.8802587;0.9833797;-0.8863271;1.656283;-1.009411;1.72208;
637945382416492496;718.5371;11;3;2;0.6;1.8;699;2.86123032904149;-0.5785094;2.18944;-0.4907726;2.087785;0.779423;1.05;0.8802587;0.9833797;
637945382423484077;719.237;11;3;2;0.6;1.8;700;2.85714285714286;0.3078185;0.6542768;0.3334338;0.7568395;-0.5785094;2.18944;-0.4907726;2.087785;
637945382449479959;721.8358;11;3;4;0.1;1.4;1500;2.66666666666667;-0.2394138;0.8422151;-0.2407291;0.8444471;0;2.2;0.03304921;2.202394;
637945382463468165;723.2351;11;3;4;0.1;1.4;1399;2.85918513223731;0.4499513;2.036231;0.4323965;2.017928;-0.2394138;0.8422151;-0.2407291;0.8444471;
637945382485569586;725.4454;11;3;4;0.1;1.4;2210;1.80995475113122;-0.6062176;1.15;-0.6120935;1.183803;0.4499513;2.036231;0.4323965;2.017928;
637945382506564334;727.5441;11;3;4;0.1;1.4;2099;1.90566936636494;0.6893654;1.621554;0.6793566;1.628666;-0.6062176;1.15;-0.6120935;1.183803;
637945382516559797;728.5438;11;3;4;0.1;1.4;1000;4;-0.6893655;1.621553;-0.6784506;1.659429;0.6893654;1.621554;0.6793566;1.628666;
637945382532552507;730.1431;11;3;4;0.1;1.4;1599;2.50156347717323;0.6062179;1.15;0.6486195;1.161206;-0.6893655;1.621553;-0.6784506;1.659429;
637945382542542529;731.1425;11;3;4;0.1;1.4;999;4.004004004004;-0.4499517;2.036231;-0.4674115;2.041438;0.6062179;1.15;0.6486195;1.161206;
637945382552542555;732.142;11;3;4;0.1;1.4;1000;4;0.2394144;0.8422153;0.2356065;0.8841921;-0.4499517;2.036231;-0.4674115;2.041438;
637945382578641582;734.752;11;3;3.5;0.2;2;1111;3.15031503150315;-0.3420197;0.5603072;-0.2764128;0.5882238;0;2.5;0.02552884;2.405169;
637945382588903905;735.7866;11;3;3.5;0.2;2;1035;3.3816425120773;0.6427875;2.266045;0.6512487;2.171706;-0.3420197;0.5603072;-0.2764128;0.5882238;
637945382598626101;736.751;11;3;3.5;0.2;2;964;3.63070539419087;-0.8660251;0.9999995;-0.7960937;1.010639;0.6427875;2.266045;0.6512487;2.171706;
637945382607628138;737.6508;11;3;3.5;0.2;2;900;3.88888888888889;0.9848077;1.673648;0.9554193;1.695595;-0.8660251;0.9999995;-0.7960937;1.010639;
637945382617620398;738.6501;11;3;3.5;0.2;2;999;3.5035035035035;-0.9848078;1.673648;-0.9182147;1.665738;0.9848077;1.673648;0.9554193;1.695595;
637945382625612210;739.4498;11;3;3.5;0.2;2;800;4.375;0.8660256;1;0.799233;1.054025;-0.9848078;1.673648;-0.9182147;1.665738;
637945382634614241;740.3497;11;3;3.5;0.2;2;900;3.88888888888889;-0.6427882;2.266044;-0.6242605;2.235928;0.8660256;1;0.799233;1.054025;
637945382653608542;742.2485;11;3;3.5;0.2;2;1899;1.84307530279094;0.3420205;0.5603075;0.3782737;0.6389884;-0.6427882;2.266044;-0.6242605;2.235928;
637945383808293851;857.7172;11;4;1.5;1.1;2;400;3.75;-0.3420197;0.5603072;-0.1810336;0.9930237;0;2.5;0.05787654;2.252073;
637945383813284979;858.2169;11;4;1.5;1.1;2;500;3;0.6427875;2.266045;0.6226911;2.177511;-0.3420197;0.5603072;-0.1810336;0.9930237;
637945383825287692;859.4166;11;4;1.5;1.1;2;1200;1.25;-0.8660251;0.9999995;-0.6666703;1.249386;0.6427875;2.266045;0.6226911;2.177511;
637945383832279274;860.1159;11;4;1.5;1.1;2;699;2.14592274678112;0.9848077;1.673648;0.7511029;1.607014;-0.8660251;0.9999995;-0.6666703;1.249386;
637945383837280406;860.6158;11;4;1.5;1.1;2;500;3;-0.9848078;1.673648;-0.717384;1.683115;0.9848077;1.673648;0.7511029;1.607014;
637945383851273570;862.0151;11;4;1.5;1.1;2;1399;1.07219442458899;0.8660256;1;0.7872912;1.284362;-0.9848078;1.673648;-0.717384;1.683115;
637945383857274927;862.6153;11;4;1.5;1.1;2;600;2.5;-0.6427882;2.266044;-0.5843669;2.099969;0.8660256;1;0.7872912;1.284362;
637945383863266282;863.2145;11;4;1.5;1.1;2;599;2.50417362270451;0.3420205;0.5603075;0.2208541;0.9735335;-0.6427882;2.266044;-0.5843669;2.099969;
637945383901354899;867.0238;11;4;4.5;0.1;2.2;1469;3.06330837304289;-0.3762217;0.4663379;-0.351056;0.5090013;0;2.6;0.02835578;2.558828;
637945383918348741;868.723;11;4;4.5;0.1;2.2;1699;2.64861683343143;0.7070663;2.342649;0.717123;2.369688;-0.3762217;0.4663379;-0.351056;0.5090013;
637945383951340164;872.0218;11;4;4.5;0.1;2.2;3299;1.36404971203395;-0.9526277;0.9499994;-0.9210486;0.9855253;0.7070663;2.342649;0.717123;2.369688;
637945383969324235;873.8209;11;4;4.5;0.1;2.2;1799;2.50138966092273;1.083289;1.691013;1.045768;1.679062;-0.9526277;0.9499994;-0.9210486;0.9855253;
637945383979436521;874.8314;11;4;4.5;0.1;2.2;1011;4.45103857566766;-1.083289;1.691012;-1.035844;1.677897;1.083289;1.691013;1.045768;1.679062;
637945383991430396;876.0311;11;4;4.5;0.1;2.2;1200;3.75;0.9526281;0.9500003;0.9534607;0.933248;-1.083289;1.691012;-1.035844;1.677897;
637945384000423587;876.9305;11;4;4.5;0.1;2.2;899;5.0055617352614;-0.7070671;2.342648;-0.6656902;2.329872;0.9526281;0.9500003;0.9534607;0.933248;
637945384010426860;877.9302;11;4;4.5;0.1;2.2;1000;4.5;0.3762226;0.4663382;0.3404368;0.4879093;-0.7070671;2.342648;-0.6656902;2.329872;
637945384028410922;879.7292;11;4;4;0.1;1.4;900;4.44444444444444;-0.2394138;0.8422151;-0.2344565;0.8557682;0;2.2;0.01606604;2.221373;
637945384037402952;880.6287;11;4;4;0.1;1.4;899;4.44938820912125;0.4499513;2.036231;0.4221796;2.012338;-0.2394138;0.8422151;-0.2344565;0.8557682;
637945384046404996;881.5283;11;4;4;0.1;1.4;900;4.44444444444444;-0.6062176;1.15;-0.606333;1.162648;0.4499513;2.036231;0.4221796;2.012338;
637945384069390191;883.8273;11;4;4;0.1;1.4;2299;1.73988690735102;0.6893654;1.621554;0.6956502;1.606383;-0.6062176;1.15;-0.606333;1.162648;
637945384087384260;885.6265;11;4;4;0.1;1.4;1799;2.22345747637576;-0.6893655;1.621553;-0.6897874;1.64089;0.6893654;1.621554;0.6956502;1.606383;
637945384102377655;887.1259;11;4;4;0.1;1.4;1499;2.66844563042028;0.6062179;1.15;0.5977448;1.164381;-0.6893655;1.621553;-0.6897874;1.64089;
637945384118371269;888.725;11;4;4;0.1;1.4;1599;2.50156347717323;-0.4499517;2.036231;-0.4537065;2.078718;0.6062179;1.15;0.5977448;1.164381;
637945384135365111;890.4244;11;4;4;0.1;1.4;1699;2.35432607416127;0.2394144;0.8422153;0.2828691;0.8320098;-0.4499517;2.036231;-0.4537065;2.078718;
637945384149468303;891.8347;11;4;2.5;0.3;1.4;700;3.57142857142857;-0.2394138;0.8422151;-0.2347116;0.9785156;0;2.2;0.01199479;2.154686;
637945384155459658;892.4343;11;4;2.5;0.3;1.4;600;4.16666666666667;0.4499513;2.036231;0.4915625;2.047096;-0.2394138;0.8422151;-0.2347116;0.9785156;
637945384168462597;893.7339;11;4;2.5;0.3;1.4;1300;1.92307692307692;-0.6062176;1.15;-0.593797;1.290774;0.4499513;2.036231;0.4915625;2.047096;
637945384180455310;894.9333;11;4;2.5;0.3;1.4;1199;2.08507089241034;0.6893654;1.621554;0.618683;1.616695;-0.6062176;1.15;-0.593797;1.290774;
637945384187446891;895.633;11;4;2.5;0.3;1.4;700;3.57142857142857;-0.6893655;1.621553;-0.64253;1.652234;0.6893654;1.621554;0.618683;1.616695;
637945384194448469;896.3328;11;4;2.5;0.3;1.4;700;3.57142857142857;0.6062179;1.15;0.6077823;1.201782;-0.6893655;1.621553;-0.64253;1.652234;
637945384201440057;897.0322;11;4;2.5;0.3;1.4;699;3.57653791130186;-0.4499517;2.036231;-0.5299202;2.046924;0.6062179;1.15;0.6077823;1.201782;
637945384213432769;898.2316;11;4;2.5;0.3;1.4;1199;2.08507089241034;0.2394144;0.8422153;0.2754909;0.8794367;-0.4499517;2.036231;-0.5299202;2.046924;
637945384225435484;899.4312;11;4;2;0.6;1.8;600;3.33333333333333;-0.3078177;0.6542765;-0.3294696;0.748971;0;2.4;0.01122354;2.268196;
637945384230426612;899.9309;11;4;2;0.6;1.8;500;4;0.5785087;2.18944;0.6484873;2.095704;-0.3078177;0.6542765;-0.3294696;0.748971;
637945384235427745;900.4307;11;4;2;0.6;1.8;500;4;-0.7794226;1.05;-0.8961806;1.264667;0.5785087;2.18944;0.6484873;2.095704;
637945384240418872;900.9304;11;4;2;0.6;1.8;500;4;0.8863269;1.656283;0.8414913;1.678054;-0.7794226;1.05;-0.8961806;1.264667;
637945384244419776;901.3303;11;4;2;0.6;1.8;400;5;-0.8863271;1.656283;-0.670154;1.767344;0.8863269;1.656283;0.8414913;1.678054;
637945384250421133;901.9301;11;4;2;0.6;1.8;600;3.33333333333333;0.779423;1.05;0.9717891;1.060398;-0.8863271;1.656283;-0.670154;1.767344;
637945384254412036;902.3297;11;4;2;0.6;1.8;400;5;-0.5785094;2.18944;-0.6305799;2.151208;0.779423;1.05;0.9717891;1.060398;
637945384260413394;902.9295;11;4;2;0.6;1.8;600;3.33333333333333;0.3078185;0.6542768;0.4259402;0.7356641;-0.5785094;2.18944;-0.6305799;2.151208;
637945384281519471;905.0398;11;4;3;0.2;1.4;1510;1.98675496688742;-0.2394138;0.8422151;-0.3374646;0.859861;0;2.2;-0.03684371;2.214576;
637945384288510748;905.7394;11;4;3;0.2;1.4;700;4.28571428571429;0.4499513;2.036231;0.5128095;2.085541;-0.2394138;0.8422151;-0.3374646;0.859861;
637945384303504139;907.2386;11;4;3;0.2;1.4;1499;2.00133422281521;-0.6062176;1.15;-0.6013647;1.180463;0.4499513;2.036231;0.5128095;2.085541;
637945384310505721;907.9384;11;4;3;0.2;1.4;700;4.28571428571429;0.6893654;1.621554;0.6094773;1.63317;-0.6062176;1.15;-0.6013647;1.180463;
637945384316497098;908.538;11;4;3;0.2;1.4;600;5;-0.6893655;1.621553;-0.6591666;1.570302;0.6893654;1.621554;0.6094773;1.63317;
637945384336483811;910.5372;11;4;3;0.2;1.4;1999;1.50075037518759;0.6062179;1.15;0.5833961;1.183367;-0.6893655;1.621553;-0.6591666;1.570302;
637945384343483809;911.2368;11;4;3;0.2;1.4;700;4.28571428571429;-0.4499517;2.036231;-0.3771529;2.045676;0.6062179;1.15;0.5833961;1.183367;
637945384348482799;911.7366;11;4;3;0.2;1.4;500;6;0.2394144;0.8422153;0.163739;0.7978134;-0.4499517;2.036231;-0.3771529;2.045676;
637945384368473838;913.7359;11;4;3.5;0.2;2;1200;2.91666666666667;-0.3420197;0.5603072;-0.3286255;0.5577641;0;2.5;0.01734006;2.544963;
637945384390465000;915.9346;11;4;3.5;0.2;2;2199;1.59163256025466;0.6427875;2.266045;0.5878315;2.225311;-0.3420197;0.5603072;-0.3286255;0.5577641;
637945384404575039;917.3452;11;4;3.5;0.2;2;1410;2.4822695035461;-0.8660251;0.9999995;-0.911793;1.053115;0.6427875;2.266045;0.5878315;2.225311;
637945384412564397;918.1447;11;4;3.5;0.2;2;800;4.375;0.9848077;1.673648;0.99775;1.657129;-0.8660251;0.9999995;-0.911793;1.053115;
637945384424560610;919.3442;11;4;3.5;0.2;2;1199;2.91909924937448;-0.9848078;1.673648;-0.9473824;1.615577;0.9848077;1.673648;0.99775;1.657129;
637945384432552420;920.1436;11;4;3.5;0.2;2;799;4.38047559449312;0.8660256;1;0.7710012;1.025118;-0.9848078;1.673648;-0.9473824;1.615577;
637945384446545582;921.543;11;4;3.5;0.2;2;1399;2.50178699070765;-0.6427882;2.266044;-0.6059083;2.276959;0.8660256;1;0.7710012;1.025118;
637945384454547392;922.3427;11;4;3.5;0.2;2;800;4.375;0.3420205;0.5603075;0.2615358;0.6167312;-0.6427882;2.266044;-0.6059083;2.276959;
637945384936776434;970.5651;11;5;3;0.2;1.4;911;3.29308452250274;-0.2394138;0.8422151;-0.2312905;0.9226661;0;2.2;-0.007186621;2.216232;
637945384943768017;971.2645;11;5;3;0.2;1.4;699;4.29184549356223;0.4499513;2.036231;0.3971391;2.116782;-0.2394138;0.8422151;-0.2312905;0.9226661;
637945384949759370;971.8643;11;5;3;0.2;1.4;600;5;-0.6062176;1.15;-0.6279526;1.188146;0.4499513;2.036231;0.3971391;2.116782;
637945384955760727;972.4641;11;5;3;0.2;1.4;600;5;0.6893654;1.621554;0.7594182;1.660275;-0.6062176;1.15;-0.6279526;1.188146;
637945384965752987;973.4635;11;5;3;0.2;1.4;1000;3;-0.6893655;1.621553;-0.6385829;1.54633;0.6893654;1.621554;0.7594182;1.660275;
637945384977075550;974.6033;11;5;3;0.2;1.4;1140;2.63157894736842;0.6062179;1.15;0.5378358;1.220243;-0.6893655;1.621553;-0.6385829;1.54633;
637945384984747283;975.3625;11;5;3;0.2;1.4;759;3.95256916996047;-0.4499517;2.036231;-0.4981939;2.00252;0.6062179;1.15;0.5378358;1.220243;
637945384991738865;976.0623;11;5;3;0.2;1.4;700;4.28571428571429;0.2394144;0.8422153;0.2826219;0.8297622;-0.4499517;2.036231;-0.4981939;2.00252;
637945385001741130;977.062;11;5;1.5;1.1;2;400;3.75;-0.3420197;0.5603072;-0.222079;0.9049616;0;2.5;-0.005331544;2.389166;
637945385006732255;977.5616;11;5;1.5;1.1;2;500;3;0.6427875;2.266045;0.6844926;2.296239;-0.3420197;0.5603072;-0.222079;0.9049616;
637945385011733386;978.0613;11;5;1.5;1.1;2;500;3;-0.8660251;0.9999995;-0.973834;1.196272;0.6427875;2.266045;0.6844926;2.296239;
637945385016734518;978.5612;11;5;1.5;1.1;2;500;3;0.9848077;1.673648;0.9930013;1.780848;-0.8660251;0.9999995;-0.973834;1.196272;
637945385022725873;979.1609;11;5;1.5;1.1;2;600;2.5;-0.9848078;1.673648;-1.215892;1.873763;0.9848077;1.673648;0.9930013;1.780848;
637945385028727231;979.7605;11;5;1.5;1.1;2;600;2.5;0.8660256;1;0.5515993;1.192764;-0.9848078;1.673648;-1.215892;1.873763;
637945385032728135;980.1603;11;5;1.5;1.1;2;400;3.75;-0.6427882;2.266044;-0.2967859;2.107707;0.8660256;1;0.5515993;1.192764;
637945385037719272;980.6601;11;5;1.5;1.1;2;500;3;0.3420205;0.5603075;0.2441167;0.8485179;-0.6427882;2.266044;-0.2967859;2.107707;
637945385047711524;981.6596;11;5;2;0.6;1.8;500;4;-0.3078177;0.6542765;-0.3465;0.6703109;0;2.4;0.1251761;2.278984;
637945385052712655;982.1594;11;5;2;0.6;1.8;500;4;0.5785087;2.18944;0.8312821;2.180216;-0.3078177;0.6542765;-0.3465;0.6703109;
637945385059714238;982.8592;11;5;2;0.6;1.8;700;2.85714285714286;-0.7794226;1.05;-0.5770368;1.054825;0.5785087;2.18944;0.8312821;2.180216;
637945385064705368;983.3588;11;5;2;0.6;1.8;500;4;0.8863269;1.656283;0.7831978;1.807824;-0.7794226;1.05;-0.5770368;1.054825;
637945385070706725;983.9586;11;5;2;0.6;1.8;600;3.33333333333333;-0.8863271;1.656283;-0.7738998;1.502932;0.8863269;1.656283;0.7831978;1.807824;
637945385082813708;985.1694;11;5;2;0.6;1.8;1211;1.65152766308836;0.779423;1.05;0.8298527;1.123199;-0.8863271;1.656283;-0.7738998;1.502932;
637945385094806422;986.3685;11;5;2;0.6;1.8;1199;1.66805671392827;-0.5785094;2.18944;-0.3947722;2.161137;0.779423;1.05;0.8298527;1.123199;
637945385100805828;986.9686;11;5;2;0.6;1.8;600;3.33333333333333;0.3078185;0.6542768;0.155767;0.7895675;-0.5785094;2.18944;-0.3947722;2.161137;
637945385113801568;988.2678;11;5;2.5;0.3;1.4;699;3.57653791130186;-0.2394138;0.8422151;-0.153392;0.949527;0;2.2;0.04882095;2.22368;
637945385118791326;988.7675;11;5;2.5;0.3;1.4;500;5;0.4499513;2.036231;0.4632293;2.07204;-0.2394138;0.8422151;-0.153392;0.949527;
637945385129790034;989.8672;11;5;2.5;0.3;1.4;1100;2.27272727272727;-0.6062176;1.15;-0.5787287;1.263471;0.4499513;2.036231;0.4632293;2.07204;
637945385139780662;990.8666;11;5;2.5;0.3;1.4;999;2.5025025025025;0.6893654;1.621554;0.641908;1.654484;-0.6062176;1.15;-0.5787287;1.263471;
637945385144781323;991.3663;11;5;2.5;0.3;1.4;500;5;-0.6893655;1.621553;-0.7670191;1.693597;0.6893654;1.621554;0.641908;1.654484;
637945385149776563;991.8661;11;5;2.5;0.3;1.4;500;5;0.6062179;1.15;0.5209218;1.23935;-0.6893655;1.621553;-0.7670191;1.693597;
637945385154776095;992.3659;11;5;2.5;0.3;1.4;500;5;-0.4499517;2.036231;-0.3901682;2.073894;0.6062179;1.15;0.5209218;1.23935;
637945385166767258;993.5652;11;5;2.5;0.3;1.4;1199;2.08507089241034;0.2394144;0.8422153;0.1778129;0.8026398;-0.4499517;2.036231;-0.3901682;2.073894;
637945385193763362;996.2641;11;5;3.5;0.2;2;1399;2.50178699070765;-0.3420197;0.5603072;-0.2857894;0.5864359;0;2.5;0.04488058;2.424526;
637945385200864968;996.9747;11;5;3.5;0.2;2;711;4.92264416315049;0.6427875;2.266045;0.5818019;2.2897;-0.3420197;0.5603072;-0.2857894;0.5864359;
637945385216858588;998.5742;11;5;3.5;0.2;2;1599;2.18886804252658;-0.8660251;0.9999995;-0.7979578;0.9441432;0.6427875;2.266045;0.5818019;2.2897;
637945385227851074;999.6736;11;5;3.5;0.2;2;1099;3.18471337579618;0.9848077;1.673648;0.9388298;1.620881;-0.8660251;0.9999995;-0.7979578;0.9441432;
637945385240083839;1000.904;11;5;3.5;0.2;2;1230;2.84552845528455;-0.9848078;1.673648;-1.070441;1.696584;0.9848077;1.673648;0.9388298;1.620881;
637945385247845594;1001.673;11;5;3.5;0.2;2;769;4.55136540962289;0.8660256;1;0.7761259;0.9821995;-0.9848078;1.673648;-1.070441;1.696584;
637945385260838536;1002.972;11;5;3.5;0.2;2;1299;2.69438029253272;-0.6427882;2.266044;-0.6269045;2.265635;0.8660256;1;0.7761259;0.9821995;
637945385280833053;1004.971;11;5;3.5;0.2;2;1999;1.75087543771886;0.3420205;0.5603075;0.3461641;0.5947756;-0.6427882;2.266044;-0.6269045;2.265635;
637945385309929634;1007.881;11;5;4;0.1;1.4;1310;3.05343511450382;-0.2394138;0.8422151;-0.2292154;0.8296963;0;2.2;-0.0004273076;2.203992;
637945385324923025;1009.38;11;5;4;0.1;1.4;1499;2.66844563042028;0.4499513;2.036231;0.4383952;2.063398;-0.2394138;0.8422151;-0.2292154;0.8296963;
637945385338126015;1010.708;11;5;4;0.1;1.4;1328;3.01204819277108;-0.6062176;1.15;-0.6474081;1.134025;0.4499513;2.036231;0.4383952;2.063398;
637945385356240111;1012.52;11;5;4;0.1;1.4;1811;2.20872446162341;0.6893654;1.621554;0.7312218;1.603861;-0.6062176;1.15;-0.6474081;1.134025;
637945385387887267;1015.677;11;5;4;0.1;1.4;3158;1.26662444585181;-0.6893655;1.621553;-0.665872;1.656437;0.6893654;1.621554;0.7312218;1.603861;
637945385404881110;1017.376;11;5;4;0.1;1.4;1699;2.35432607416127;0.6062179;1.15;0.6225076;1.169055;-0.6893655;1.621553;-0.665872;1.656437;
637945385434867892;1020.375;11;5;4;0.1;1.4;2999;1.33377792597533;-0.4499517;2.036231;-0.4270854;2.029131;0.6062179;1.15;0.6225076;1.169055;
637945385442869700;1021.175;11;5;4;0.1;1.4;800;5;0.2394144;0.8422153;0.2170152;0.8614056;-0.4499517;2.036231;-0.4270854;2.029131;
637945385464969887;1023.385;11;5;4.5;0.1;2.2;1211;3.7159372419488;-0.3762217;0.4663379;-0.3569001;0.4713036;0;2.6;-0.01186046;2.591102;
637945385485964635;1025.484;11;5;4.5;0.1;2.2;2099;2.14387803716055;0.7070663;2.342649;0.731979;2.310483;-0.3762217;0.4663379;-0.3569001;0.4713036;
637945385505949919;1027.483;11;5;4.5;0.1;2.2;1999;2.25112556278139;-0.9526277;0.9499994;-0.9621239;0.9989623;0.7070663;2.342649;0.731979;2.310483;
637945385515942946;1028.482;11;5;4.5;0.1;2.2;999;4.5045045045045;1.083289;1.691013;1.09626;1.703099;-0.9526277;0.9499994;-0.9621239;0.9989623;
637945385537147668;1030.611;11;5;4.5;0.1;2.2;2128;2.11466165413534;-1.083289;1.691012;-1.123439;1.674821;1.083289;1.691013;1.09626;1.703099;
637945385550930794;1031.981;11;5;4.5;0.1;2.2;1370;3.28467153284672;0.9526281;0.9500003;0.9357626;0.9793578;-1.083289;1.691012;-1.123439;1.674821;
637945385561923277;1033.08;11;5;4.5;0.1;2.2;1099;4.09463148316652;-0.7070671;2.342648;-0.6968259;2.3169;0.9526281;0.9500003;0.9357626;0.9793578;
637945385583028052;1035.191;11;5;4.5;0.1;2.2;2110;2.13270142180095;0.3762226;0.4663382;0.3701265;0.5040624;-0.7070671;2.342648;-0.6968259;2.3169;
637945386022158576;1079.103;11;6;2;0.6;1.8;500;4;-0.3078177;0.6542765;-0.3696108;0.7924918;0;2.4;-0.005691908;2.268467;
637945386029150154;1079.803;11;6;2;0.6;1.8;700;2.85714285714286;0.5785087;2.18944;0.3911523;1.979257;-0.3078177;0.6542765;-0.3696108;0.7924918;
637945386034151283;1080.303;11;6;2;0.6;1.8;500;4;-0.7794226;1.05;-0.860659;1.154638;0.5785087;2.18944;0.3911523;1.979257;
637945386039142414;1080.803;11;6;2;0.6;1.8;500;4;0.8863269;1.656283;0.6247188;1.529485;-0.7794226;1.05;-0.860659;1.154638;
637945386045253796;1081.414;11;6;2;0.6;1.8;611;3.27332242225859;-0.8863271;1.656283;-0.7991025;1.621692;0.8863269;1.656283;0.6247188;1.529485;
637945386050254926;1081.913;11;6;2;0.6;1.8;500;4;0.779423;1.05;0.7432298;1.119492;-0.8863271;1.656283;-0.7991025;1.621692;
637945386055246056;1082.413;11;6;2;0.6;1.8;500;4;-0.5785094;2.18944;-0.4567932;2.131989;0.779423;1.05;0.7432298;1.119492;
637945386060247188;1082.913;11;6;2;0.6;1.8;500;4;0.3078185;0.6542768;0.2870536;0.9250268;-0.5785094;2.18944;-0.4567932;2.131989;
637945386072239899;1084.112;11;6;1.5;1.1;2;700;2.14285714285714;-0.3420197;0.5603072;-0.3266401;0.9843606;0;2.5;0.04373146;2.396741;
637945386077241023;1084.612;11;6;1.5;1.1;2;500;3;0.6427875;2.266045;0.4408276;1.919216;-0.3420197;0.5603072;-0.3266401;0.9843606;
637945386081231935;1085.012;11;6;1.5;1.1;2;400;3.75;-0.8660251;0.9999995;-0.5662968;1.227544;0.6427875;2.266045;0.4408276;1.919216;
637945386086233065;1085.512;11;6;1.5;1.1;2;500;3;0.9848077;1.673648;0.690887;1.602163;-0.8660251;0.9999995;-0.5662968;1.227544;
637945386090233970;1085.911;11;6;1.5;1.1;2;400;3.75;-0.9848078;1.673648;-0.6481964;1.669545;0.9848077;1.673648;0.690887;1.602163;
637945386101226456;1087.011;11;6;1.5;1.1;2;1100;1.36363636363636;0.8660256;1;0.4788318;1.281461;-0.9848078;1.673648;-0.6481964;1.669545;
637945386106227586;1087.51;11;6;1.5;1.1;2;499;3.0060120240481;-0.6427882;2.266044;-0.3869763;1.970984;0.8660256;1;0.4788318;1.281461;
637945386111218715;1088.01;11;6;1.5;1.1;2;500;3;0.3420205;0.5603075;0.2785728;0.8930018;-0.6427882;2.266044;-0.3869763;1.970984;
637945386130443065;1089.94;11;6;4.5;0.1;2.2;1088;4.13602941176471;-0.3762217;0.4663379;-0.4215598;0.4830532;0;2.6;-0.01031282;2.557484;
637945386154198440;1092.308;11;6;4.5;0.1;2.2;2368;1.90033783783784;0.7070663;2.342649;0.7216567;2.298941;-0.3762217;0.4663379;-0.4215598;0.4830532;
637945386168201601;1093.708;11;6;4.5;0.1;2.2;1399;3.21658327376698;-0.9526277;0.9499994;-0.9229572;0.9748725;0.7070663;2.342649;0.7216567;2.298941;
637945386179194081;1094.807;11;6;4.5;0.1;2.2;1099;4.09463148316652;1.083289;1.691013;1.047118;1.712956;-0.9526277;0.9499994;-0.9229572;0.9748725;
637945386195177697;1096.406;11;6;4.5;0.1;2.2;1599;2.81425891181989;-1.083289;1.691012;-1.09488;1.667128;1.083289;1.691013;1.047118;1.712956;
637945386206290217;1097.517;11;6;4.5;0.1;2.2;1111;4.05040504050405;0.9526281;0.9500003;0.990495;0.9593239;-1.083289;1.691012;-1.09488;1.667128;
637945386216602546;1098.557;11;6;4.5;0.1;2.2;1039;4.33108758421559;-0.7070671;2.342648;-0.6925808;2.294794;0.9526281;0.9500003;0.990495;0.9593239;
637945386225274516;1099.416;11;6;4.5;0.1;2.2;859;5.23864959254948;0.3762226;0.4663382;0.3450442;0.4920008;-0.7070671;2.342648;-0.6925808;2.294794;
637945386252264863;1102.115;11;6;4;0.1;1.4;1999;2.00100050025012;-0.2394138;0.8422151;-0.2207088;0.8781621;0;2.2;0.01861449;2.170505;
637945386261266899;1103.015;11;6;4;0.1;1.4;900;4.44444444444444;0.4499513;2.036231;0.4566339;2.039469;-0.2394138;0.8422151;-0.2207088;0.8781621;
637945386268538543;1103.75;11;6;4;0.1;1.4;735;5.4421768707483;-0.6062176;1.15;-0.6470152;1.1369;0.4499513;2.036231;0.4566339;2.039469;
637945386284462364;1105.342;11;6;4;0.1;1.4;1593;2.51098556183302;0.6893654;1.621554;0.7214872;1.59716;-0.6062176;1.15;-0.6470152;1.1369;
637945386294243466;1106.313;11;6;4;0.1;1.4;971;4.11946446961895;-0.6893655;1.621553;-0.6635376;1.601992;0.6893654;1.621554;0.7214872;1.59716;
637945386308236667;1107.712;11;6;4;0.1;1.4;1399;2.85918513223731;0.6062179;1.15;0.5689923;1.129298;-0.6893655;1.621553;-0.6635376;1.601992;
637945386336341603;1110.522;11;6;4;0.1;1.4;2810;1.42348754448399;-0.4499517;2.036231;-0.4405902;2.015666;0.6062179;1.15;0.5689923;1.129298;
637945386344333409;1111.322;11;6;4;0.1;1.4;800;5;0.2394144;0.8422153;0.1980557;0.8562249;-0.4499517;2.036231;-0.4405902;2.015666;
637945386365328155;1113.421;11;6;3.5;0.2;2;800;4.375;-0.3420197;0.5603072;-0.3814871;0.6104689;0;2.5;-0.03579919;2.419347;
637945386373329965;1114.22;11;6;3.5;0.2;2;800;4.375;0.6427875;2.266045;0.60163;2.304705;-0.3420197;0.5603072;-0.3814871;0.6104689;
637945386387313129;1115.62;11;6;3.5;0.2;2;1400;2.5;-0.8660251;0.9999995;-0.9075763;1.073727;0.6427875;2.266045;0.60163;2.304705;
637945386395314938;1116.42;11;6;3.5;0.2;2;800;4.375;0.9848077;1.673648;0.9580546;1.629481;-0.8660251;0.9999995;-0.9075763;1.073727;
637945386402306521;1117.119;11;6;3.5;0.2;2;700;5;-0.9848078;1.673648;-1.03199;1.708738;0.9848077;1.673648;0.9580546;1.629481;
637945386415309461;1118.419;11;6;3.5;0.2;2;1299;2.69438029253272;0.8660256;1;0.798708;1.058122;-0.9848078;1.673648;-1.03199;1.708738;
637945386422571101;1119.153;11;6;3.5;0.2;2;734;4.76839237057221;-0.6427882;2.266044;-0.7121402;2.199815;0.8660256;1;0.798708;1.058122;
637945386429302626;1119.818;11;6;3.5;0.2;2;665;5.26315789473684;0.3420205;0.5603075;0.3886103;0.5865047;-0.6427882;2.266044;-0.7121402;2.199815;
637945386443295784;1121.217;11;6;3;0.2;1.4;700;4.28571428571429;-0.2394138;0.8422151;-0.2076132;0.8095802;0;2.2;-0.08172236;2.190808;
637945386450287371;1121.917;11;6;3;0.2;1.4;700;4.28571428571429;0.4499513;2.036231;0.416366;2.110053;-0.2394138;0.8422151;-0.2076132;0.8095802;
637945386457278954;1122.616;11;6;3;0.2;1.4;699;4.29184549356223;-0.6062176;1.15;-0.5975062;1.179222;0.4499513;2.036231;0.416366;2.110053;
637945386468281441;1123.716;11;6;3;0.2;1.4;1100;2.72727272727273;0.6893654;1.621554;0.6750585;1.651913;-0.6062176;1.15;-0.5975062;1.179222;
637945386484275058;1125.315;11;6;3;0.2;1.4;1599;1.87617260787993;-0.6893655;1.621553;-0.6702469;1.658557;0.6893654;1.621554;0.6750585;1.651913;
637945386505369828;1127.425;11;6;3;0.2;1.4;2110;1.4218009478673;0.6062179;1.15;0.5743142;1.196911;-0.6893655;1.621553;-0.6702469;1.658557;
637945386520373221;1128.925;11;6;3;0.2;1.4;1499;2.00133422281521;-0.4499517;2.036231;-0.5025651;2.014614;0.6062179;1.15;0.5743142;1.196911;
637945386530365481;1129.924;11;6;3;0.2;1.4;999;3.003003003003;0.2394144;0.8422153;0.1867629;0.7972796;-0.4499517;2.036231;-0.5025651;2.014614;
637945386549349775;1131.823;11;6;2.5;0.3;1.4;1199;2.08507089241034;-0.2394138;0.8422151;-0.2801456;0.9020474;0;2.2;0.1023901;2.095923;
637945386570364527;1133.925;11;6;2.5;0.3;1.4;2102;1.18934348239772;0.4499513;2.036231;0.371342;1.914326;-0.2394138;0.8422151;-0.2801456;0.9020474;
637945386578446349;1134.733;11;6;2.5;0.3;1.4;808;3.09405940594059;-0.6062176;1.15;-0.6048217;1.228351;0.4499513;2.036231;0.371342;1.914326;
637945386585447941;1135.433;11;6;2.5;0.3;1.4;700;3.57142857142857;0.6893654;1.621554;0.6675264;1.635033;-0.6062176;1.15;-0.6048217;1.228351;
637945386592439524;1136.133;11;6;2.5;0.3;1.4;700;3.57142857142857;-0.6893655;1.621553;-0.6100761;1.659457;0.6893654;1.621554;0.6675264;1.635033;
637945386604442236;1137.332;11;6;2.5;0.3;1.4;1199;2.08507089241034;0.6062179;1.15;0.5752581;1.169506;-0.6893655;1.621553;-0.6100761;1.659457;
637945386618425397;1138.731;11;6;2.5;0.3;1.4;1399;1.78699070764832;-0.4499517;2.036231;-0.5408751;2.08131;0.6062179;1.15;0.5752581;1.169506;
637945386631428339;1140.031;11;6;2.5;0.3;1.4;1299;1.92455735180908;0.2394144;0.8422153;0.2442279;0.9744189;-0.4499517;2.036231;-0.5408751;2.08131;
637945387060562116;1182.944;11;7;2.5;0.3;1.4;999;2.5025025025025;-0.2394138;0.8422151;-0.1887808;0.9065456;0;2.2;-0.06439531;2.158823;
637945387066553472;1183.544;11;7;2.5;0.3;1.4;600;4.16666666666667;0.4499513;2.036231;0.352094;2.13442;-0.2394138;0.8422151;-0.1887808;0.9065456;
637945387072554829;1184.143;11;7;2.5;0.3;1.4;599;4.17362270450751;-0.6062176;1.15;-0.7374631;1.124989;0.4499513;2.036231;0.352094;2.13442;
637945387078546184;1184.743;11;7;2.5;0.3;1.4;600;4.16666666666667;0.6893654;1.621554;0.6699526;1.621148;-0.6062176;1.15;-0.7374631;1.124989;
637945387091549124;1186.043;11;7;2.5;0.3;1.4;1299;1.92455735180908;-0.6893655;1.621553;-0.6459531;1.579421;0.6893654;1.621554;0.6699526;1.621148;
637945387097540480;1186.642;11;7;2.5;0.3;1.4;600;4.16666666666667;0.6062179;1.15;0.7200294;1.124348;-0.6893655;1.621553;-0.6459531;1.579421;
637945387108532967;1187.742;11;7;2.5;0.3;1.4;1099;2.27479526842584;-0.4499517;2.036231;-0.3858599;1.991865;0.6062179;1.15;0.7200294;1.124348;
637945387115534550;1188.442;11;7;2.5;0.3;1.4;700;3.57142857142857;0.2394144;0.8422153;0.1964368;0.9380816;-0.4499517;2.036231;-0.3858599;1.991865;
637945387130818009;1189.977;11;7;3;0.2;1.4;795;3.77358490566038;-0.2394138;0.8422151;-0.3045127;0.9181231;0;2.2;-0.0582059;2.266291;
637945387137519522;1190.641;11;7;3;0.2;1.4;663;4.52488687782806;0.4499513;2.036231;0.4843043;2.110464;-0.2394138;0.8422151;-0.3045127;0.9181231;
637945387144631131;1191.351;11;7;3;0.2;1.4;711;4.21940928270042;-0.6062176;1.15;-0.5349364;1.168782;0.4499513;2.036231;0.4843043;2.110464;
637945387164625654;1193.35;11;7;3;0.2;1.4;1999;1.50075037518759;0.6893654;1.621554;0.6534854;1.606708;-0.6062176;1.15;-0.5349364;1.168782;
637945387171617234;1194.05;11;7;3;0.2;1.4;700;4.28571428571429;-0.6893655;1.621553;-0.6907578;1.667975;0.6893654;1.621554;0.6534854;1.606708;
637945387182609719;1195.15;11;7;3;0.2;1.4;1099;2.72975432211101;0.6062179;1.15;0.5457808;1.106858;-0.6893655;1.621553;-0.6907578;1.667975;
637945387198603338;1196.749;11;7;3;0.2;1.4;1599;1.87617260787993;-0.4499517;2.036231;-0.4157373;1.995596;0.6062179;1.15;0.5457808;1.106858;
637945387207605372;1197.648;11;7;3;0.2;1.4;900;3.33333333333333;0.2394144;0.8422153;0.1990407;0.7896407;-0.4499517;2.036231;-0.4157373;1.995596;
637945387232591024;1200.147;11;7;3.5;0.2;2;900;3.88888888888889;-0.3420197;0.5603072;-0.4039648;0.6384357;0;2.5;-0.03866716;2.459343;
637945387241913137;1201.087;11;7;3.5;0.2;2;940;3.72340425531915;0.6427875;2.266045;0.7286383;2.284907;-0.3420197;0.5603072;-0.4039648;0.6384357;
637945387249584867;1201.846;11;7;3.5;0.2;2;760;4.60526315789474;-0.8660251;0.9999995;-0.8808439;0.9584572;0.6427875;2.266045;0.7286383;2.284907;
637945387261577581;1203.046;11;7;3.5;0.2;2;1200;2.91666666666667;0.9848077;1.673648;1.029085;1.682048;-0.8660251;0.9999995;-0.8808439;0.9584572;
637945387270569614;1203.945;11;7;3.5;0.2;2;899;3.89321468298109;-0.9848078;1.673648;-0.9617313;1.655012;0.9848077;1.673648;1.029085;1.682048;
637945387279571652;1204.845;11;7;3.5;0.2;2;900;3.88888888888889;0.8660256;1;0.7970113;1.016329;-0.9848078;1.673648;-0.9617313;1.655012;
637945387287563455;1205.645;11;7;3.5;0.2;2;800;4.375;-0.6427882;2.266044;-0.6733974;2.241061;0.8660256;1;0.7970113;1.016329;
637945387305667551;1207.455;11;7;3.5;0.2;2;1810;1.93370165745856;0.3420205;0.5603075;0.3128334;0.5514096;-0.6427882;2.266044;-0.6733974;2.241061;
637945387317660264;1208.654;11;7;1.5;1.1;2;500;3;-0.3420197;0.5603072;0.009565659;0.9234706;0;2.5;0.02418118;2.163462;
637945387321661169;1209.054;11;7;1.5;1.1;2;400;3.75;0.6427875;2.266045;0.4748749;1.826212;-0.3420197;0.5603072;0.009565659;0.9234706;
637945387326662299;1209.554;11;7;1.5;1.1;2;500;3;-0.8660251;0.9999995;-0.6423817;1.303406;0.6427875;2.266045;0.4748749;1.826212;
637945387330653202;1209.954;11;7;1.5;1.1;2;400;3.75;0.9848077;1.673648;0.6539174;1.51737;-0.8660251;0.9999995;-0.6423817;1.303406;
637945387335764360;1210.465;11;7;1.5;1.1;2;511;2.93542074363992;-0.9848078;1.673648;-0.535332;1.637003;0.9848077;1.673648;0.6539174;1.51737;
637945387348762859;1211.764;11;7;1.5;1.1;2;1299;1.15473441108545;0.8660256;1;0.7360212;1.262132;-0.9848078;1.673648;-0.535332;1.637003;
637945387361755799;1213.063;11;7;1.5;1.1;2;1299;1.15473441108545;-0.6427882;2.266044;-0.1955812;2.168881;0.8660256;1;0.7360212;1.262132;
637945387369747606;1213.863;11;7;1.5;1.1;2;800;1.875;0.3420205;0.5603075;0.1198115;0.8675514;-0.6427882;2.266044;-0.1955812;2.168881;
637945387389740881;1215.862;11;7;4;0.1;1.4;1000;4;-0.2394138;0.8422151;-0.2330183;0.853901;0;2.2;0.006932715;2.165092;
637945387399734277;1216.862;11;7;4;0.1;1.4;1000;4;0.4499513;2.036231;0.4378903;2.001245;-0.2394138;0.8422151;-0.2330183;0.853901;
637945387411736607;1218.061;11;7;4;0.1;1.4;1199;3.33611342785655;-0.6062176;1.15;-0.6070146;1.144242;0.4499513;2.036231;0.4378903;2.001245;
637945387422007105;1219.096;11;7;4;0.1;1.4;1035;3.86473429951691;0.6893654;1.621554;0.6420926;1.605264;-0.6062176;1.15;-0.6070146;1.144242;
637945387438006895;1220.696;11;7;4;0.1;1.4;1600;2.5;-0.6893655;1.621553;-0.6822852;1.577181;0.6893654;1.621554;0.6420926;1.605264;
637945387458820244;1222.77;11;7;4;0.1;1.4;2074;1.92864030858245;0.6062179;1.15;0.5784104;1.136262;-0.6893655;1.621553;-0.6822852;1.577181;
637945387474813860;1224.369;11;7;4;0.1;1.4;1599;2.50156347717323;-0.4499517;2.036231;-0.4173532;2.028388;0.6062179;1.15;0.5784104;1.136262;
637945387484806123;1225.369;11;7;4;0.1;1.4;1000;4;0.2394144;0.8422153;0.2202974;0.8480985;-0.4499517;2.036231;-0.4173532;2.028388;
637945387513792677;1228.268;11;7;4.5;0.1;2.2;1200;3.75;-0.3762217;0.4663379;-0.3622233;0.4827646;0;2.6;0.009302262;2.598858;
637945387527785841;1229.667;11;7;4.5;0.1;2.2;1399;3.21658327376698;0.7070663;2.342649;0.6899949;2.353952;-0.3762217;0.4663379;-0.3622233;0.4827646;
637945387558782852;1232.766;11;7;4.5;0.1;2.2;3099;1.45208131655373;-0.9526277;0.9499994;-0.9936155;0.9520177;0.7070663;2.342649;0.6899949;2.353952;
637945387573096089;1234.206;11;7;4.5;0.1;2.2;1440;3.125;1.083289;1.691013;1.040383;1.667015;-0.9526277;0.9499994;-0.9936155;0.9520177;
637945387584758729;1235.364;11;7;4.5;0.1;2.2;1158;3.8860103626943;-1.083289;1.691012;-1.103789;1.704751;1.083289;1.691013;1.040383;1.667015;
637945387635850283;1240.473;11;7;4.5;0.1;2.2;5109;0.880798590722255;0.9526281;0.9500003;0.9501585;0.9771129;-1.083289;1.691012;-1.103789;1.704751;
637945387645842541;1241.473;11;7;4.5;0.1;2.2;1000;4.5;-0.7070671;2.342648;-0.7104841;2.314634;0.9526281;0.9500003;0.9501585;0.9771129;
637945387655834802;1242.472;11;7;4.5;0.1;2.2;1000;4.5;0.3762226;0.4663382;0.3862801;0.4849945;-0.7070671;2.342648;-0.7104841;2.314634;
637945387666837290;1243.572;11;7;2;0.6;1.8;500;4;-0.3078177;0.6542765;-0.1457685;0.6699364;0;2.4;0.01707557;2.446843;
637945387671828422;1244.071;11;7;2;0.6;1.8;500;4;0.5785087;2.18944;0.5422692;2.268744;-0.3078177;0.6542765;-0.1457685;0.6699364;
637945387676829550;1244.571;11;7;2;0.6;1.8;500;4;-0.7794226;1.05;-0.7993493;1.033517;0.5785087;2.18944;0.5422692;2.268744;
637945387682830910;1245.171;11;7;2;0.6;1.8;600;3.33333333333333;0.8863269;1.656283;0.7035238;1.521214;-0.7794226;1.05;-0.7993493;1.033517;
637945387688822263;1245.771;11;7;2;0.6;1.8;600;3.33333333333333;-0.8863271;1.656283;-0.9109641;1.74378;0.8863269;1.656283;0.7035238;1.521214;
637945387695043672;1246.4;11;7;2;0.6;1.8;629;3.17965023847377;0.779423;1.05;0.7107562;1.340547;-0.8863271;1.656283;-0.9109641;1.74378;
637945387701825202;1247.07;11;7;2;0.6;1.8;671;2.9806259314456;-0.5785094;2.18944;-0.5872811;2.096857;0.779423;1.05;0.7107562;1.340547;
637945387706816332;1247.57;11;7;2;0.6;1.8;500;4;0.3078185;0.6542768;0.2984317;0.7279826;-0.5785094;2.18944;-0.5872811;2.096857;
