637952942204833925;332.9339;12;0;3.5;0.2;2;2699;1.29677658391997;-0.3420197;0.5603072;-0.3122199;0.494686;0;2.5;0.04016774;2.460909;
637952942257920910;338.2428;12;0;3.5;0.2;2;5309;0.659257864004521;0.6427875;2.266045;0.6759574;2.28249;-0.3420197;0.5603072;-0.3122199;0.494686;
637952942278904973;340.3419;12;0;3.5;0.2;2;2099;1.66746069556932;-0.8660251;0.9999995;-0.8474777;0.960057;0.6427875;2.266045;0.6759574;2.28249;
637952942288896904;341.3411;12;0;3.5;0.2;2;999;3.5035035035035;0.9848077;1.673648;0.8989388;1.724607;-0.8660251;0.9999995;-0.8474777;0.960057;
637952942302999637;342.7516;12;0;3.5;0.2;2;1410;2.4822695035461;-0.9848078;1.673648;-0.965309;1.729216;0.9848077;1.673648;0.8989388;1.724607;
637952942320993109;344.5511;12;0;3.5;0.2;2;1799;1.94552529182879;0.8660256;1;0.8386326;1.089268;-0.9848078;1.673648;-0.965309;1.729216;
637952942343977558;346.8498;12;0;3.5;0.2;2;2299;1.52240104393214;-0.6427882;2.266044;-0.6776389;2.257866;0.8660256;1;0.8386326;1.089268;
637952942365970144;349.0488;12;0;3.5;0.2;2;2199;1.59163256025466;0.3420205;0.5603075;0.2875087;0.6256179;-0.6427882;2.266044;-0.6776389;2.257866;
637952942393938313;351.8445;12;0;4;0.1;1.4;1296;3.08641975308642;-0.2394138;0.8422151;-0.2278745;0.8631015;0;2.2;0.02545863;2.198995;
637952942405958174;353.0473;12;0;4;0.1;1.4;1203;3.32502078137988;0.4499513;2.036231;0.4311691;2.057848;-0.2394138;0.8422151;-0.2278745;0.8631015;
637952942453932888;357.845;12;0;4;0.1;1.4;4798;0.833680700291788;-0.6062176;1.15;-0.5905029;1.192703;0.4499513;2.036231;0.4311691;2.057848;
637952942521010720;364.5527;12;0;4;0.1;1.4;6708;0.596302921884317;0.6893654;1.621554;0.6666698;1.607281;-0.6062176;1.15;-0.5905029;1.192703;
637952942577981738;370.2502;12;0;4;0.1;1.4;5698;0.702000702000702;-0.6893655;1.621553;-0.6917815;1.670152;0.6893654;1.621554;0.6666698;1.607281;
637952942605077172;372.96;12;0;4;0.1;1.4;2710;1.4760147601476;0.6062179;1.15;0.6196237;1.175576;-0.6893655;1.621553;-0.6917815;1.670152;
637952942622073713;374.6594;12;0;4;0.1;1.4;1699;2.35432607416127;-0.4499517;2.036231;-0.4164363;2.018552;0.6062179;1.15;0.6196237;1.175576;
637952942645068160;376.9584;12;0;4;0.1;1.4;2299;1.73988690735102;0.2394144;0.8422153;0.2683523;0.8703433;-0.4499517;2.036231;-0.4164363;2.018552;
637952942670052994;379.4571;12;0;2.5;0.3;1.4;1460;1.71232876712329;-0.2394138;0.8422151;-0.195317;0.8933342;0;2.2;0.04431862;2.058472;
637952942682035312;380.6563;12;0;2.5;0.3;1.4;1199;2.08507089241034;0.4499513;2.036231;0.3572464;2.091954;-0.2394138;0.8422151;-0.195317;0.8933342;
637952942696138041;382.0668;12;0;2.5;0.3;1.4;1410;1.77304964539007;-0.6062176;1.15;-0.5613201;1.2548;0.4499513;2.036231;0.3572464;2.091954;
637952942707140168;383.1666;12;0;2.5;0.3;1.4;1100;2.27272727272727;0.6893654;1.621554;0.7670386;1.616144;-0.6062176;1.15;-0.5613201;1.2548;
637952942721132876;384.5659;12;0;2.5;0.3;1.4;1399;1.78699070764832;-0.6893655;1.621553;-0.7134002;1.649077;0.6893654;1.621554;0.7670386;1.616144;
637952942729124423;385.3655;12;0;2.5;0.3;1.4;800;3.125;0.6062179;1.15;0.6542354;1.28364;-0.6893655;1.621553;-0.7134002;1.649077;
637952942739126354;386.365;12;0;2.5;0.3;1.4;1000;2.5;-0.4499517;2.036231;-0.5026558;2.022822;0.6062179;1.15;0.6542354;1.28364;
637952942753119062;387.7645;12;0;2.5;0.3;1.4;1399;1.78699070764832;0.2394144;0.8422153;0.2327926;0.9817111;-0.4499517;2.036231;-0.5026558;2.022822;
637952942797097572;392.1622;12;0;4.5;0.1;2.2;1499;3.00200133422282;-0.3762217;0.4663379;-0.3620566;0.509748;0;2.6;0.009077661;2.621411;
637952942817081437;394.1615;12;0;4.5;0.1;2.2;1999;2.25112556278139;0.7070663;2.342649;0.6714699;2.325597;-0.3762217;0.4663379;-0.3620566;0.509748;
637952942832074336;395.6605;12;0;4.5;0.1;2.2;1499;3.00200133422282;-0.9526277;0.9499994;-0.912653;0.9769534;0.7070663;2.342649;0.6714699;2.325597;
637952942853178421;397.7706;12;0;4.5;0.1;2.2;2110;2.13270142180095;1.083289;1.691013;1.057576;1.700356;-0.9526277;0.9499994;-0.912653;0.9769534;
637952942870161704;399.4697;12;0;4.5;0.1;2.2;1699;2.64861683343143;-1.083289;1.691012;-1.035181;1.679148;1.083289;1.691013;1.057576;1.700356;
637952942886162014;401.0692;12;0;4.5;0.1;2.2;1599;2.81425891181989;0.9526281;0.9500003;0.9179868;0.9778724;-1.083289;1.691012;-1.035181;1.679148;
637952942915143003;403.9679;12;0;4.5;0.1;2.2;2899;1.55225939979303;-0.7070671;2.342648;-0.699331;2.334592;0.9526281;0.9500003;0.9179868;0.9778724;
637952942945429229;407.0035;12;0;4.5;0.1;2.2;3036;1.48221343873518;0.3762226;0.4663382;0.3501997;0.5090333;-0.7070671;2.342648;-0.699331;2.334592;
637952942971113164;409.565;12;0;2;0.6;1.8;1399;1.42959256611866;-0.3078177;0.6542765;-0.3021106;0.9291562;0;2.4;0.09519617;2.395141;
637952942994109445;411.8645;12;0;2;0.6;1.8;2299;0.869943453675511;0.5785087;2.18944;0.4008542;2.253797;-0.3078177;0.6542765;-0.3021106;0.9291562;
637952943002216043;412.6751;12;0;2;0.6;1.8;811;2.46609124537608;-0.7794226;1.05;-0.6434119;1.282925;0.5785087;2.18944;0.4008542;2.253797;
637952943011207781;413.5741;12;0;2;0.6;1.8;899;2.22469410456062;0.8863269;1.656283;0.6653838;1.788217;-0.7794226;1.05;-0.6434119;1.282925;
637952943025200492;414.9739;12;0;2;0.6;1.8;1400;1.42857142857143;-0.8863271;1.656283;-0.7614825;1.740741;0.8863269;1.656283;0.6653838;1.788217;
637952943037202810;416.1733;12;0;2;0.6;1.8;1199;1.66805671392827;0.779423;1.05;0.5656326;1.056437;-0.8863271;1.656283;-0.7614825;1.740741;
637952943047134730;417.1665;12;0;2;0.6;1.8;993;2.01409869083585;-0.5785094;2.18944;-0.3581329;2.109405;0.779423;1.05;0.5656326;1.056437;
637952943062187644;418.6721;12;0;2;0.6;1.8;1506;1.32802124833997;0.3078185;0.6542768;0.09203811;0.7878845;-0.5785094;2.18944;-0.3581329;2.109405;
637952943091173252;421.5708;12;0;3;0.2;1.4;1500;2;-0.2394138;0.8422151;-0.2069378;0.8808159;0;2.2;-0.004558031;2.267835;
637952943124149628;424.8692;12;0;3;0.2;1.4;3298;0.909642207398423;0.4499513;2.036231;0.4125846;2.072592;-0.2394138;0.8422151;-0.2069378;0.8808159;
637952943138142337;426.2688;12;0;3;0.2;1.4;1400;2.14285714285714;-0.6062176;1.15;-0.5291887;1.173146;0.4499513;2.036231;0.4125846;2.072592;
637952943173239125;429.7779;12;0;3;0.2;1.4;3509;0.85494442861214;0.6893654;1.621554;0.6320968;1.648917;-0.6062176;1.15;-0.5291887;1.173146;
637952943189232214;431.3775;12;0;3;0.2;1.4;1600;1.875;-0.6893655;1.621553;-0.6719793;1.659078;0.6893654;1.621554;0.6320968;1.648917;
637952943199464200;432.4074;12;0;3;0.2;1.4;1030;2.9126213592233;0.6062179;1.15;0.5692149;1.24281;-0.6893655;1.621553;-0.6719793;1.659078;
637952943210216281;433.476;12;0;3;0.2;1.4;1069;2.80636108512629;-0.4499517;2.036231;-0.3516141;2.036082;0.6062179;1.15;0.5692149;1.24281;
637952943230210145;435.4754;12;0;3;0.2;1.4;1999;1.50075037518759;0.2394144;0.8422153;0.1661881;0.8861225;-0.4499517;2.036231;-0.3516141;2.036082;
637952943252594470;437.7204;12;0;1.5;1.1;2;946;1.58562367864693;-0.3420197;0.5603072;-0.3344836;1.110013;0;2.5;-0.05487417;2.457496;
637952943406233719;453.0785;12;0;1.5;1.1;2;15358;0.0976689673134523;0.6427875;2.266045;0.2776291;2.170006;-0.3420197;0.5603072;-0.3344836;1.110013;
637952943427227784;455.1776;12;0;1.5;1.1;2;2099;0.714626012386851;-0.8660251;0.9999995;-0.7544813;1.424651;0.6427875;2.266045;0.2776291;2.170006;
637952943441330512;456.5877;12;0;1.5;1.1;2;1410;1.06382978723404;0.9848077;1.673648;0.7048073;1.774347;-0.8660251;0.9999995;-0.7544813;1.424651;
637952943453322829;457.7874;12;0;1.5;1.1;2;1200;1.25;-0.9848078;1.673648;-0.8058529;1.863556;0.9848077;1.673648;0.7048073;1.774347;
637952943495300948;461.985;12;0;1.5;1.1;2;4198;0.357313006193425;0.8660256;1;0.4942594;1.189687;-0.9848078;1.673648;-0.8058529;1.863556;
637952943544270422;466.8826;12;0;1.5;1.1;2;4898;0.306247447937934;-0.6427882;2.266044;-0.5416719;2.135008;0.8660256;1;0.4942594;1.189687;
637952943565264483;468.9821;12;0;1.5;1.1;2;2099;0.714626012386851;0.3420205;0.5603075;0.01894808;0.8243796;-0.6427882;2.266044;-0.5416719;2.135008;
637952945495864855;662.0479;12;1;3;0.2;1.4;1199;2.50208507089241;-0.2394138;0.8422151;-0.2305199;0.8982606;0;2.2;-0.02508419;2.186947;
637952945505856789;663.0471;12;1;3;0.2;1.4;999;3.003003003003;0.4499513;2.036231;0.4867719;2.026213;-0.2394138;0.8422151;-0.2305199;0.8982606;
637952945517098964;664.1779;12;1;3;0.2;1.4;1131;2.6525198938992;-0.6062176;1.15;-0.6941348;1.171701;0.4499513;2.036231;0.4867719;2.026213;
637952945528851235;665.3463;12;1;3;0.2;1.4;1168;2.56849315068493;0.6893654;1.621554;0.6775469;1.626664;-0.6062176;1.15;-0.6941348;1.171701;
637952945568828970;669.3444;12;1;3;0.2;1.4;3998;0.750375187593797;-0.6893655;1.621553;-0.6785639;1.562173;0.6893654;1.621554;0.6775469;1.626664;
637952945581821484;670.6437;12;1;3;0.2;1.4;1299;2.3094688221709;0.6062179;1.15;0.5638225;1.116775;-0.6893655;1.621553;-0.6785639;1.562173;
637952945594813994;671.9432;12;1;3;0.2;1.4;1299;2.3094688221709;-0.4499517;2.036231;-0.3931368;1.966557;0.6062179;1.15;0.5638225;1.116775;
637952945606916337;673.1537;12;1;3;0.2;1.4;1210;2.47933884297521;0.2394144;0.8422153;0.2075352;0.9036366;-0.4499517;2.036231;-0.3931368;1.966557;
637952945643903492;676.8524;12;1;4.5;0.1;2.2;1600;2.8125;-0.3762217;0.4663379;-0.3477969;0.5060877;0;2.6;0.01045181;2.562766;
637952945658896393;678.3512;12;1;4.5;0.1;2.2;1499;3.00200133422282;0.7070663;2.342649;0.694658;2.346004;-0.3762217;0.4663379;-0.3477969;0.5060877;
637952945669888517;679.4509;12;1;4.5;0.1;2.2;1100;4.09090909090909;-0.9526277;0.9499994;-0.9168212;0.9733946;0.7070663;2.342649;0.694658;2.346004;
637952945690872580;681.5496;12;1;4.5;0.1;2.2;2099;2.14387803716055;1.083289;1.691013;1.051701;1.722539;-0.9526277;0.9499994;-0.9168212;0.9733946;
637952945757945445;688.2576;12;1;4.5;0.1;2.2;6708;0.670840787119857;-1.083289;1.691012;-1.089401;1.695894;1.083289;1.691013;1.051701;1.722539;
637952945778929499;690.3568;12;1;4.5;0.1;2.2;2099;2.14387803716055;0.9526281;0.9500003;0.9572616;0.9953144;-1.083289;1.691012;-1.089401;1.695894;
637952945800923755;692.5556;12;1;4.5;0.1;2.2;2199;2.04638472032742;-0.7070671;2.342648;-0.6842932;2.298533;0.9526281;0.9500003;0.9572616;0.9953144;
637952945852893809;697.7534;12;1;4.5;0.1;2.2;5198;0.865717583686033;0.3762226;0.4663382;0.3680452;0.4910758;-0.7070671;2.342648;-0.6842932;2.298533;
637952945995936539;712.0574;12;1;4;0.1;1.4;2199;1.81900864029104;-0.2394138;0.8422151;-0.2488242;0.8302875;0;2.2;0.02674448;2.205291;
637952946062011133;718.666;12;1;4;0.1;1.4;6609;0.605235285217128;0.4499513;2.036231;0.4463653;2.035233;-0.2394138;0.8422151;-0.2488242;0.8302875;
637952946200054345;732.4707;12;1;4;0.1;1.4;13805;0.289750090546903;-0.6062176;1.15;-0.5864353;1.158593;0.4499513;2.036231;0.4463653;2.035233;
637952946271018069;739.567;12;1;4;0.1;1.4;7096;0.56369785794814;0.6893654;1.621554;0.7156826;1.653409;-0.6062176;1.15;-0.5864353;1.158593;
637952946289011546;741.3662;12;1;4;0.1;1.4;1799;2.22345747637576;-0.6893655;1.621553;-0.6722963;1.602411;0.6893654;1.621554;0.7156826;1.653409;
637952946309995612;743.4653;12;1;4;0.1;1.4;2099;1.90566936636494;0.6062179;1.15;0.6094028;1.193576;-0.6893655;1.621553;-0.6722963;1.602411;
637952946349093173;747.3745;12;1;4;0.1;1.4;3909;1.02327961115375;-0.4499517;2.036231;-0.4436059;2.056649;0.6062179;1.15;0.6094028;1.193576;
637952946384069940;750.8729;12;1;4;0.1;1.4;3498;1.14351057747284;0.2394144;0.8422153;0.2527229;0.8796688;-0.4499517;2.036231;-0.4436059;2.056649;
637952946413059709;753.7715;12;1;2;0.6;1.8;1299;1.53964588144727;-0.3078177;0.6542765;-0.2303995;0.852934;0;2.4;0.03375806;2.33432;
637952946424056979;754.8713;12;1;2;0.6;1.8;1100;1.81818181818182;0.5785087;2.18944;0.4716476;2.238407;-0.3078177;0.6542765;-0.2303995;0.852934;
637952946447041426;757.1701;12;1;2;0.6;1.8;2299;0.869943453675511;-0.7794226;1.05;-0.6614976;1.266992;0.5785087;2.18944;0.4716476;2.238407;
637952946460033939;758.4696;12;1;2;0.6;1.8;1299;1.53964588144727;0.8863269;1.656283;0.9217055;1.689292;-0.7794226;1.05;-0.6614976;1.266992;
637952946480136375;760.4798;12;1;2;0.6;1.8;2010;0.995024875621891;-0.8863271;1.656283;-0.8560748;1.685063;0.8863269;1.656283;0.9217055;1.689292;
637952946489138116;761.3794;12;1;2;0.6;1.8;900;2.22222222222222;0.779423;1.05;0.6593668;1.136489;-0.8863271;1.656283;-0.8560748;1.685063;
637952946500130245;762.4786;12;1;2;0.6;1.8;1099;1.81983621474067;-0.5785094;2.18944;-0.4789546;2.063875;0.779423;1.05;0.6593668;1.136489;
637952946508121788;763.2782;12;1;2;0.6;1.8;800;2.5;0.3078185;0.6542768;0.2113967;0.9317075;-0.5785094;2.18944;-0.4789546;2.063875;
637952946533116627;765.7772;12;1;3.5;0.2;2;1299;2.69438029253272;-0.3420197;0.5603072;-0.3148992;0.6235785;0;2.5;-0.02472395;2.441079;
637952946546109138;767.0767;12;1;3.5;0.2;2;1300;2.69230769230769;0.6427875;2.266045;0.6105839;2.272351;-0.3420197;0.5603072;-0.3148992;0.6235785;
637952946566093004;769.0759;12;1;3.5;0.2;2;1999;1.75087543771886;-0.8660251;0.9999995;-0.8062655;1.029246;0.6427875;2.266045;0.6105839;2.272351;
637952946577085129;770.175;12;1;3.5;0.2;2;1099;3.18471337579618;0.9848077;1.673648;0.9228132;1.729645;-0.8660251;0.9999995;-0.8062655;1.029246;
637952946607070927;773.1736;12;1;3.5;0.2;2;2999;1.16705568522841;-0.9848078;1.673648;-0.8937383;1.693268;0.9848077;1.673648;0.9228132;1.729645;
637952946624074221;774.8732;12;1;3.5;0.2;2;1700;2.05882352941176;0.8660256;1;0.8345172;1.052225;-0.9848078;1.673648;-0.8937383;1.693268;
637952946669162940;779.3821;12;1;3.5;0.2;2;4509;0.776225327123531;-0.6427882;2.266044;-0.6326087;2.195298;0.8660256;1;0.8345172;1.052225;
637952946693147583;781.7808;12;1;3.5;0.2;2;2399;1.45894122551063;0.3420205;0.5603075;0.3485821;0.5717334;-0.6427882;2.266044;-0.6326087;2.195298;
637952946715131831;783.98;12;1;1.5;1.1;2;799;1.87734668335419;-0.3420197;0.5603072;-0.3076409;1.099468;0;2.5;0.01273449;2.293806;
637952946725123768;784.9793;12;1;1.5;1.1;2;999;1.5015015015015;0.6427875;2.266045;0.348601;2.254017;-0.3420197;0.5603072;-0.3076409;1.099468;
637952946733125313;785.7789;12;1;1.5;1.1;2;800;1.875;-0.8660251;0.9999995;-0.7378219;1.324392;0.6427875;2.266045;0.348601;2.254017;
637952946743117243;786.7784;12;1;1.5;1.1;2;1000;1.5;0.9848077;1.673648;0.6970134;1.773354;-0.8660251;0.9999995;-0.7378219;1.324392;
637952946760106488;788.4776;12;1;1.5;1.1;2;1699;0.882872277810477;-0.9848078;1.673648;-0.7594931;1.840366;0.9848077;1.673648;0.6970134;1.773354;
637952946770103969;789.4772;12;1;1.5;1.1;2;1000;1.5;0.8660256;1;0.5833294;1.087728;-0.9848078;1.673648;-0.7594931;1.840366;
637952946788207473;791.2878;12;1;1.5;1.1;2;1811;0.82827167310878;-0.6427882;2.266044;-0.4025028;2.1624;0.8660256;1;0.5833294;1.087728;
637952946800199784;792.4871;12;1;1.5;1.1;2;1199;1.25104253544621;0.3420205;0.5603075;0.0972434;0.8936977;-0.6427882;2.266044;-0.4025028;2.1624;
637952946835184608;795.9851;12;1;2.5;0.3;1.4;1399;1.78699070764832;-0.2394138;0.8422151;-0.1690333;0.908126;0;2.2;-0.0122367;2.202945;
637952946855178476;797.9841;12;1;2.5;0.3;1.4;1999;1.25062531265633;0.4499513;2.036231;0.4192516;2.040796;-0.2394138;0.8422151;-0.1690333;0.908126;
637952946871171570;799.5837;12;1;2.5;0.3;1.4;1600;1.5625;-0.6062176;1.15;-0.488866;1.115848;0.4499513;2.036231;0.4192516;2.040796;
637952946880153308;800.483;12;1;2.5;0.3;1.4;899;2.78086763070078;0.6893654;1.621554;0.5597456;1.628871;-0.6062176;1.15;-0.488866;1.115848;
637952946896156402;802.0826;12;1;2.5;0.3;1.4;1600;1.5625;-0.6893655;1.621553;-0.6100022;1.637235;0.6893654;1.621554;0.5597456;1.628871;
637952946913149689;803.7817;12;1;2.5;0.3;1.4;1699;1.47145379635079;0.6062179;1.15;0.546858;1.193144;-0.6893655;1.621553;-0.6100022;1.637235;
637952946926252222;805.0922;12;1;2.5;0.3;1.4;1310;1.90839694656489;-0.4499517;2.036231;-0.3822357;2.072253;0.6062179;1.15;0.546858;1.193144;
637952946948236476;807.2912;12;1;2.5;0.3;1.4;2199;1.1368804001819;0.2394144;0.8422153;0.1906076;0.9382606;-0.4499517;2.036231;-0.3822357;2.072253;
637952948320691338;944.5389;12;2;4.5;0.1;2.2;2299;1.9573727707699;-0.3762217;0.4663379;-0.3397149;0.4952811;0;2.6;-0.02685072;2.628921;
637952948338784839;946.349;12;2;4.5;0.1;2.2;1810;2.48618784530387;0.7070663;2.342649;0.7177141;2.323352;-0.3762217;0.4663379;-0.3397149;0.4952811;
637952948374761800;949.947;12;2;4.5;0.1;2.2;3598;1.25069483046137;-0.9526277;0.9499994;-0.9188805;0.9711543;0.7070663;2.342649;0.7177141;2.323352;
637952948418750308;954.3453;12;2;4.5;0.1;2.2;4398;1.02319236016371;1.083289;1.691013;1.050679;1.69619;-0.9526277;0.9499994;-0.9188805;0.9711543;
637952948476721525;960.1425;12;2;4.5;0.1;2.2;5797;0.776263584612731;-1.083289;1.691012;-1.058227;1.664805;1.083289;1.691013;1.050679;1.69619;
637952948499705967;962.4413;12;2;4.5;0.1;2.2;2299;1.9573727707699;0.9526281;0.9500003;0.9442676;0.9992403;-1.083289;1.691012;-1.058227;1.664805;
637952948515809078;964.0519;12;2;4.5;0.1;2.2;1611;2.79329608938547;-0.7070671;2.342648;-0.6729282;2.325938;0.9526281;0.9500003;0.9442676;0.9992403;
637952948553789029;967.8499;12;2;4.5;0.1;2.2;3798;1.18483412322275;0.3762226;0.4663382;0.3732219;0.5101905;-0.7070671;2.342648;-0.6729282;2.325938;
637952948590887418;971.5594;12;2;3;0.2;1.4;1610;1.86335403726708;-0.2394138;0.8422151;-0.269068;0.9200665;0;2.2;0.03093833;2.211903;
637952948604310632;972.9095;12;2;3;0.2;1.4;1350;2.22222222222222;0.4499513;2.036231;0.4157806;2.128092;-0.2394138;0.8422151;-0.269068;0.9200665;
637952948638862616;976.3571;12;2;3;0.2;1.4;3448;0.870069605568445;-0.6062176;1.15;-0.6262512;1.188577;0.4499513;2.036231;0.4157806;2.128092;
637952948650854937;977.5565;12;2;3;0.2;1.4;1199;2.50208507089241;0.6893654;1.621554;0.6225165;1.630175;-0.6062176;1.15;-0.6262512;1.188577;
637952948661847063;978.6564;12;2;3;0.2;1.4;1100;2.72727272727273;-0.6893655;1.621553;-0.6347018;1.630073;0.6893654;1.621554;0.6225165;1.630175;
637952948684951531;980.9667;12;2;3;0.2;1.4;2310;1.2987012987013;0.6062179;1.15;0.5303579;1.207886;-0.6893655;1.621553;-0.6347018;1.630073;
637952948698334122;982.3121;12;2;3;0.2;1.4;1346;2.22882615156018;-0.4499517;2.036231;-0.3501318;2.038147;0.6062179;1.15;0.5303579;1.207886;
637952948709936365;983.4648;12;2;3;0.2;1.4;1153;2.601908065915;0.2394144;0.8422153;0.1651021;0.8972038;-0.4499517;2.036231;-0.3501318;2.038147;
637952948751904483;987.663;12;2;3.5;0.2;2;1499;2.33488992661775;-0.3420197;0.5603072;-0.2946554;0.6022531;0;2.5;-0.0102662;2.415999;
637952948768117621;989.2924;12;2;3.5;0.2;2;1629;2.14855739717618;0.6427875;2.266045;0.7337657;2.224542;-0.3420197;0.5603072;-0.2946554;0.6022531;
637952948777249388;990.2054;12;2;3.5;0.2;2;913;3.83351588170865;-0.8660251;0.9999995;-0.8382109;1.095347;0.6427875;2.266045;0.7337657;2.224542;
637952948794872796;991.9608;12;2;3.5;0.2;2;1755;1.99430199430199;0.9848077;1.673648;0.8852854;1.674127;-0.8660251;0.9999995;-0.8382109;1.095347;
637952948812976295;993.7713;12;2;3.5;0.2;2;1810;1.93370165745856;-0.9848078;1.673648;-0.9426617;1.717834;0.9848077;1.673648;0.8852854;1.674127;
637952948854964427;997.9694;12;2;3.5;0.2;2;4198;0.833730347784659;0.8660256;1;0.8285837;1.041305;-0.9848078;1.673648;-0.9426617;1.717834;
637952948868957126;999.3687;12;2;3.5;0.2;2;1399;2.50178699070765;-0.6427882;2.266044;-0.5901239;2.277557;0.8660256;1;0.8285837;1.041305;
637952948885940410;1001.068;12;2;3.5;0.2;2;1699;2.06003531489111;0.3420205;0.5603075;0.3687734;0.6139208;-0.6427882;2.266044;-0.5901239;2.277557;
637952948918011682;1004.275;12;2;2.5;0.3;1.4;2007;1.24564025909317;-0.2394138;0.8422151;-0.1928021;0.9415996;0;2.2;0.01791719;2.151918;
637952948928926410;1005.366;12;2;2.5;0.3;1.4;1091;2.29147571035747;0.4499513;2.036231;0.3524897;2.111186;-0.2394138;0.8422151;-0.1928021;0.9415996;
637952948937242361;1006.205;12;2;2.5;0.3;1.4;839;2.97973778307509;-0.6062176;1.15;-0.66732;1.285976;0.4499513;2.036231;0.3524897;2.111186;
637952948955135823;1007.994;12;2;2.5;0.3;1.4;1790;1.39664804469274;0.6893654;1.621554;0.5409177;1.633392;-0.6062176;1.15;-0.66732;1.285976;
637952948965017758;1008.975;12;2;2.5;0.3;1.4;981;2.54841997961264;-0.6893655;1.621553;-0.7053568;1.640419;0.6893654;1.621554;0.5409177;1.633392;
637952948983011241;1010.774;12;2;2.5;0.3;1.4;1799;1.38966092273485;0.6062179;1.15;0.5067595;1.202391;-0.6893655;1.621553;-0.7053568;1.640419;
637952949011992735;1013.673;12;2;2.5;0.3;1.4;2899;0.862366333218351;-0.4499517;2.036231;-0.5243395;2.014008;0.6062179;1.15;0.5067595;1.202391;
637952949055971246;1018.071;12;2;2.5;0.3;1.4;4398;0.56844020009095;0.2394144;0.8422153;0.1698405;0.8834909;-0.4499517;2.036231;-0.5243395;2.014008;
637952949106951106;1023.169;12;2;2;0.6;1.8;2799;0.714540907466952;-0.3078177;0.6542765;-0.2575639;0.8087803;0;2.4;-0.03230565;2.323206;
637952949135036536;1025.978;12;2;2;0.6;1.8;2810;0.711743772241993;0.5785087;2.18944;0.4192197;2.095317;-0.3078177;0.6542765;-0.2575639;0.8087803;
637952949156030596;1028.077;12;2;2;0.6;1.8;2099;0.952834683182468;-0.7794226;1.05;-0.5558271;1.085626;0.5785087;2.18944;0.4192197;2.095317;
637952949172023692;1029.677;12;2;2;0.6;1.8;1599;1.25078173858662;0.8863269;1.656283;0.6602069;1.579352;-0.7794226;1.05;-0.5558271;1.085626;
637952949193017753;1031.776;12;2;2;0.6;1.8;2099;0.952834683182468;-0.8863271;1.656283;-0.6654133;1.676561;0.8863269;1.656283;0.6602069;1.579352;
637952949207000462;1033.175;12;2;2;0.6;1.8;1399;1.42959256611866;0.779423;1.05;0.5373658;1.024872;-0.8863271;1.656283;-0.6654133;1.676561;
637952949236996262;1036.174;12;2;2;0.6;1.8;2999;0.666888962987663;-0.5785094;2.18944;-0.5549722;2.043704;0.779423;1.05;0.5373658;1.024872;
637952949249988776;1037.473;12;2;2;0.6;1.8;1299;1.53964588144727;0.3078185;0.6542768;0.3769644;0.7542857;-0.5785094;2.18944;-0.5549722;2.043704;
637952949293078799;1041.782;12;2;1.5;1.1;2;1799;0.833796553640912;-0.3420197;0.5603072;-0.2319568;1.041312;0;2.5;-0.03821383;2.194248;
637952949303070729;1042.782;12;2;1.5;1.1;2;999;1.5015015015015;0.6427875;2.266045;0.2097722;2.318313;-0.3420197;0.5603072;-0.2319568;1.041312;
637952949315065662;1043.981;12;2;1.5;1.1;2;1199;1.25104253544621;-0.8660251;0.9999995;-0.648932;1.210563;0.6427875;2.266045;0.2097722;2.318313;
637952949333058379;1045.78;12;2;1.5;1.1;2;1799;0.833796553640912;0.9848077;1.673648;0.759779;1.838368;-0.8660251;0.9999995;-0.648932;1.210563;
637952949347051200;1047.179;12;2;1.5;1.1;2;1399;1.07219442458899;-0.9848078;1.673648;-0.949754;1.764423;0.9848077;1.673648;0.759779;1.838368;
637952949356042940;1048.079;12;2;1.5;1.1;2;900;1.66666666666667;0.8660256;1;0.64341;1.427744;-0.9848078;1.673648;-0.949754;1.764423;
637952949379027387;1050.378;12;2;1.5;1.1;2;2299;0.652457590256633;-0.6427882;2.266044;-0.4166486;2.104528;0.8660256;1;0.64341;1.427744;
637952949397020865;1052.178;12;2;1.5;1.1;2;1799;0.833796553640912;0.3420205;0.5603075;0.2017847;0.9776228;-0.6427882;2.266044;-0.4166486;2.104528;
637952949430117270;1055.487;12;2;4;0.1;1.4;1999;2.00100050025012;-0.2394138;0.8422151;-0.2330671;0.8738077;0;2.2;0.01753209;2.190803;
637952949453111718;1057.786;12;2;4;0.1;1.4;2299;1.73988690735102;0.4499513;2.036231;0.4809635;2.032986;-0.2394138;0.8422151;-0.2330671;0.8738077;
637952949480096935;1060.485;12;2;4;0.1;1.4;2699;1.48203038162282;-0.6062176;1.15;-0.5824576;1.193806;0.4499513;2.036231;0.4809635;2.032986;
637952949505081773;1062.984;12;2;4;0.1;1.4;2499;1.60064025610244;0.6893654;1.621554;0.6838928;1.631775;-0.6062176;1.15;-0.5824576;1.193806;
637952949536177786;1066.093;12;2;4;0.1;1.4;3110;1.28617363344051;-0.6893655;1.621553;-0.6914478;1.660086;0.6893654;1.621554;0.6838928;1.631775;
637952949556161645;1068.092;12;2;4;0.1;1.4;1999;2.00100050025012;0.6062179;1.15;0.5894127;1.177698;-0.6893655;1.621553;-0.6914478;1.660086;
637952949568163972;1069.292;12;2;4;0.1;1.4;1200;3.33333333333333;-0.4499517;2.036231;-0.4601283;2.065122;0.6062179;1.15;0.5894127;1.177698;
637952949597139575;1072.19;12;2;4;0.1;1.4;2898;1.38026224982747;0.2394144;0.8422153;0.2397855;0.8908075;-0.4499517;2.036231;-0.4601283;2.065122;
637952950536569359;1166.135;12;3;2.5;0.3;1.4;1099;2.27479526842584;-0.2394138;0.8422151;-0.2204514;0.9582708;0;2.2;0.00537657;2.130747;
637952950550562064;1167.535;12;3;2.5;0.3;1.4;1400;1.78571428571429;0.4499513;2.036231;0.3632109;2.002297;-0.2394138;0.8422151;-0.2204514;0.9582708;
637952950564554769;1168.934;12;3;2.5;0.3;1.4;1399;1.78699070764832;-0.6062176;1.15;-0.4840526;1.235509;0.4499513;2.036231;0.3632109;2.002297;
637952950573556514;1169.834;12;3;2.5;0.3;1.4;900;2.77777777777778;0.6893654;1.621554;0.6209677;1.673519;-0.6062176;1.15;-0.4840526;1.235509;
637952950584548640;1170.933;12;3;2.5;0.3;1.4;1099;2.27479526842584;-0.6893655;1.621553;-0.5423804;1.624744;0.6893654;1.621554;0.6209677;1.673519;
637952950595540764;1172.033;12;3;2.5;0.3;1.4;1100;2.27272727272727;0.6062179;1.15;0.5418104;1.214726;-0.6893655;1.621553;-0.5423804;1.624744;
637952950606537949;1173.132;12;3;2.5;0.3;1.4;1099;2.27479526842584;-0.4499517;2.036231;-0.321457;1.979988;0.6062179;1.15;0.5418104;1.214726;
637952950619637654;1174.443;12;3;2.5;0.3;1.4;1311;1.906941266209;0.2394144;0.8422153;0.1859852;0.9275451;-0.4499517;2.036231;-0.321457;1.979988;
637952950644629936;1176.942;12;3;3;0.2;1.4;1200;2.5;-0.2394138;0.8422151;-0.2305372;0.8537369;0;2.2;0.02890773;2.186697;
637952950658622642;1178.341;12;3;3;0.2;1.4;1399;2.14438884917798;0.4499513;2.036231;0.3902352;2.045022;-0.2394138;0.8422151;-0.2305372;0.8537369;
637952950684610378;1180.94;12;3;3;0.2;1.4;2599;1.15429011158138;-0.6062176;1.15;-0.5603557;1.167585;0.4499513;2.036231;0.3902352;2.045022;
637952950696604533;1182.139;12;3;3;0.2;1.4;1199;2.50208507089241;0.6893654;1.621554;0.6593066;1.649738;-0.6062176;1.15;-0.5603557;1.167585;
637952950731691317;1185.649;12;3;3;0.2;1.4;3510;0.854700854700855;-0.6893655;1.621553;-0.6478806;1.670778;0.6893654;1.621554;0.6593066;1.649738;
637952950746684218;1187.148;12;3;3;0.2;1.4;1499;2.00133422281521;0.6062179;1.15;0.6194951;1.163781;-0.6893655;1.621553;-0.6478806;1.670778;
637952950757686348;1188.247;12;3;3;0.2;1.4;1100;2.72727272727273;-0.4499517;2.036231;-0.5252913;2.01259;0.6062179;1.15;0.6194951;1.163781;
637952950769678669;1189.447;12;3;3;0.2;1.4;1199;2.50208507089241;0.2394144;0.8422153;0.214299;0.8842908;-0.4499517;2.036231;-0.5252913;2.01259;
637952950808656209;1193.345;12;3;3.5;0.2;2;1799;1.94552529182879;-0.3420197;0.5603072;-0.3396134;0.6125312;0;2.5;-0.004729778;2.446524;
637952950829760291;1195.456;12;3;3.5;0.2;2;2110;1.65876777251185;0.6427875;2.266045;0.5760282;2.254771;-0.3420197;0.5603072;-0.3396134;0.6125312;
637952950860746283;1198.554;12;3;3.5;0.2;2;3098;1.12976113621691;-0.8660251;0.9999995;-0.7982356;1.016165;0.6427875;2.266045;0.5760282;2.254771;
637952950878729765;1200.353;12;3;3.5;0.2;2;1799;1.94552529182879;0.9848077;1.673648;1.002697;1.674874;-0.8660251;0.9999995;-0.7982356;1.016165;
637952950898723630;1202.352;12;3;3.5;0.2;2;1999;1.75087543771886;-0.9848078;1.673648;-1.000233;1.729595;0.9848077;1.673648;1.002697;1.674874;
637952950930709819;1205.55;12;3;3.5;0.2;2;3199;1.09409190371991;0.8660256;1;0.8162567;0.9805309;-0.9848078;1.673648;-1.000233;1.729595;
637952950950693684;1207.549;12;3;3.5;0.2;2;1999;1.75087543771886;-0.6427882;2.266044;-0.6837901;2.211558;0.8660256;1;0.8162567;0.9805309;
637952950979689292;1210.448;12;3;3.5;0.2;2;2899;1.20731286650569;0.3420205;0.5603075;0.2989782;0.6265063;-0.6427882;2.266044;-0.6837901;2.211558;
637952951029771287;1215.457;12;3;1.5;1.1;2;1199;1.25104253544621;-0.3420197;0.5603072;-0.236281;0.9716006;0;2.5;-0.0706213;2.249036;
637952951038763022;1216.357;12;3;1.5;1.1;2;900;1.66666666666667;0.6427875;2.266045;0.2809446;2.089936;-0.3420197;0.5603072;-0.236281;0.9716006;
637952951053755925;1217.856;12;3;1.5;1.1;2;1499;1.00066711140761;-0.8660251;0.9999995;-0.6732891;1.066437;0.6427875;2.266045;0.2809446;2.089936;
637952951074746444;1219.955;12;3;1.5;1.1;2;2099;0.714626012386851;0.9848077;1.673648;0.7336498;1.746883;-0.8660251;0.9999995;-0.6732891;1.066437;
637952951087738986;1221.254;12;3;1.5;1.1;2;1299;1.15473441108545;-0.9848078;1.673648;-0.6409929;1.876992;0.9848077;1.673648;0.7336498;1.746883;
637952951095950577;1222.083;12;3;1.5;1.1;2;828;1.81159420289855;0.8660256;1;0.3462914;1.176503;-0.9848078;1.673648;-0.6409929;1.876992;
637952951109733242;1223.453;12;3;1.5;1.1;2;1370;1.09489051094891;-0.6427882;2.266044;-0.3963112;2.210915;0.8660256;1;0.3462914;1.176503;
637952951126826550;1225.164;12;3;1.5;1.1;2;1710;0.87719298245614;0.3420205;0.5603075;0.08369906;0.9270169;-0.6427882;2.266044;-0.3963112;2.210915;
637952951151811377;1227.662;12;3;4.5;0.1;2.2;1199;3.75312760633862;-0.3762217;0.4663379;-0.400315;0.4734396;0;2.6;0.01747047;2.614934;
637952951181807185;1230.661;12;3;4.5;0.1;2.2;2999;1.50050016672224;0.7070663;2.342649;0.675969;2.35378;-0.3762217;0.4663379;-0.400315;0.4734396;
637952951196910105;1232.171;12;3;4.5;0.1;2.2;1510;2.98013245033113;-0.9526277;0.9499994;-0.9306173;0.9331512;0.7070663;2.342649;0.675969;2.35378;
637952951214893584;1233.971;12;3;4.5;0.1;2.2;1799;2.50138966092273;1.083289;1.691013;1.068949;1.706939;-0.9526277;0.9499994;-0.9306173;0.9331512;
637952951246879771;1237.169;12;3;4.5;0.1;2.2;3198;1.40712945590994;-1.083289;1.691012;-1.042835;1.695436;1.083289;1.691013;1.068949;1.706939;
637952951270864411;1239.568;12;3;4.5;0.1;2.2;2399;1.87578157565652;0.9526281;0.9500003;0.9349223;0.9955;-1.083289;1.691012;-1.042835;1.695436;
637952951287867700;1241.267;12;3;4.5;0.1;2.2;1700;2.64705882352941;-0.7070671;2.342648;-0.6715003;2.351684;0.9526281;0.9500003;0.9349223;0.9955;
637952951316853310;1244.166;12;3;4.5;0.1;2.2;2898;1.5527950310559;0.3762226;0.4663382;0.3502243;0.5044889;-0.7070671;2.342648;-0.6715003;2.351684;
637952951354945724;1247.975;12;3;2;0.6;1.8;2599;0.769526741054252;-0.3078177;0.6542765;-0.261828;0.8193244;0;2.4;-0.03048298;2.291049;
637952951369937449;1249.475;12;3;2;0.6;1.8;1499;1.33422281521014;0.5785087;2.18944;0.41179;2.080435;-0.3078177;0.6542765;-0.261828;0.8193244;
637952951379926568;1250.474;12;3;2;0.6;1.8;999;2.002002002002;-0.7794226;1.05;-0.7589157;1.165526;0.5785087;2.18944;0.41179;2.080435;
637952951393916501;1251.873;12;3;2;0.6;1.8;1399;1.42959256611866;0.8863269;1.656283;0.6589813;1.59263;-0.7794226;1.05;-0.7589157;1.165526;
637952951411909983;1253.673;12;3;2;0.6;1.8;1800;1.11111111111111;-0.8863271;1.656283;-0.7823738;1.693698;0.8863269;1.656283;0.6589813;1.59263;
637952951425913072;1255.072;12;3;2;0.6;1.8;1400;1.42857142857143;0.779423;1.05;0.6147121;1.02319;-0.8863271;1.656283;-0.7823738;1.693698;
637952951461999392;1258.681;12;3;2;0.6;1.8;3609;0.554170130229981;-0.5785094;2.18944;-0.5522583;2.005615;0.779423;1.05;0.6147121;1.02319;
637952951471991322;1259.681;12;3;2;0.6;1.8;1000;2;0.3078185;0.6542768;0.2480235;0.8417386;-0.5785094;2.18944;-0.5522583;2.005615;
637952951514969635;1263.979;12;3;4;0.1;1.4;2898;1.38026224982747;-0.2394138;0.8422151;-0.2252896;0.856849;0;2.2;0.01593881;2.167685;
637952951531962922;1265.678;12;3;4;0.1;1.4;1699;2.35432607416127;0.4499513;2.036231;0.4465106;2.042241;-0.2394138;0.8422151;-0.2252896;0.856849;
637952951552956986;1267.777;12;3;4;0.1;1.4;2099;1.90566936636494;-0.6062176;1.15;-0.5864965;1.135745;0.4499513;2.036231;0.4465106;2.042241;
637952951575941428;1270.076;12;3;4;0.1;1.4;2299;1.73988690735102;0.6893654;1.621554;0.6546646;1.609842;-0.6062176;1.15;-0.5864965;1.135745;
637952951592934717;1271.775;12;3;4;0.1;1.4;1699;2.35432607416127;-0.6893655;1.621553;-0.6518586;1.625672;0.6893654;1.621554;0.6546646;1.609842;
637952951603036672;1272.786;12;3;4;0.1;1.4;1010;3.96039603960396;0.6062179;1.15;0.5772378;1.184301;-0.6893655;1.621553;-0.6518586;1.625672;
637952951621030150;1274.585;12;3;4;0.1;1.4;1799;2.22345747637576;-0.4499517;2.036231;-0.4190712;2.064717;0.6062179;1.15;0.5772378;1.184301;
637952951641024018;1276.584;12;3;4;0.1;1.4;1999;2.00100050025012;0.2394144;0.8422153;0.2556497;0.8846436;-0.4499517;2.036231;-0.4190712;2.064717;
637952953022445165;1414.731;12;4;2;0.6;1.8;900;2.22222222222222;-0.3078177;0.6542765;-0.2566393;0.8950939;0;2.4;0.04823881;2.361644;
637952953036437487;1416.13;12;4;2;0.6;1.8;1399;1.42959256611866;0.5785087;2.18944;0.4246512;2.199209;-0.3078177;0.6542765;-0.2566393;0.8950939;
637952953046429419;1417.13;12;4;2;0.6;1.8;1000;2;-0.7794226;1.05;-0.6866248;1.140259;0.5785087;2.18944;0.4246512;2.199209;
637952953057431547;1418.229;12;4;2;0.6;1.8;1100;1.81818181818182;0.8863269;1.656283;0.8389692;1.657004;-0.7794226;1.05;-0.6866248;1.140259;
637952953074526993;1419.939;12;4;2;0.6;1.8;1710;1.16959064327485;-0.8863271;1.656283;-0.7053701;1.699578;0.8863269;1.656283;0.8389692;1.657004;
637952953085526872;1421.039;12;4;2;0.6;1.8;1100;1.81818181818182;0.779423;1.05;0.7123405;1.134963;-0.8863271;1.656283;-0.7053701;1.699578;
637952953094522581;1421.939;12;4;2;0.6;1.8;900;2.22222222222222;-0.5785094;2.18944;-0.3658404;2.058579;0.779423;1.05;0.7123405;1.134963;
637952953111515870;1423.638;12;4;2;0.6;1.8;1699;1.17716303708064;0.3078185;0.6542768;0.1772074;0.8799063;-0.5785094;2.18944;-0.3658404;2.058579;
637952953135500507;1426.037;12;4;1.5;1.1;2;1771;0.846979107848673;-0.3420197;0.5603072;-0.1177598;1.012991;0;2.5;0.08542331;1.96799;
637952953143492054;1426.836;12;4;1.5;1.1;2;799;1.87734668335419;0.6427875;2.266045;0.3763154;2.006155;-0.3420197;0.5603072;-0.1177598;1.012991;
637952953157494765;1428.236;12;4;1.5;1.1;2;1399;1.07219442458899;-0.8660251;0.9999995;-0.5816876;1.276957;0.6427875;2.266045;0.3763154;2.006155;
637952953164486117;1428.935;12;4;1.5;1.1;2;700;2.14285714285714;0.9848077;1.673648;0.4918261;1.486155;-0.8660251;0.9999995;-0.5816876;1.276957;
637952953192475647;1431.734;12;4;1.5;1.1;2;2799;0.535905680600214;-0.9848078;1.673648;-0.6403039;1.632826;0.9848077;1.673648;0.4918261;1.486155;
637952953226572244;1435.144;12;4;1.5;1.1;2;3409;0.440011733646231;0.8660256;1;0.5412943;1.227138;-0.9848078;1.673648;-0.6403039;1.632826;
637952953249556690;1437.443;12;4;1.5;1.1;2;2299;0.652457590256633;-0.6427882;2.266044;-0.4502351;2.20309;0.8660256;1;0.5412943;1.227138;
637952953281542877;1440.641;12;4;1.5;1.1;2;3198;0.469043151969981;0.3420205;0.5603075;0.1489939;0.9651038;-0.6427882;2.266044;-0.4502351;2.20309;
637952953321520609;1444.639;12;4;3.5;0.2;2;2699;1.29677658391997;-0.3420197;0.5603072;-0.3089679;0.6542042;0;2.5;0.03685581;2.421807;
637952953335513308;1446.039;12;4;3.5;0.2;2;1400;2.5;0.6427875;2.266045;0.5542978;2.262204;-0.3420197;0.5603072;-0.3089679;0.6542042;
637952953353616819;1447.849;12;4;3.5;0.2;2;1810;1.93370165745856;-0.8660251;0.9999995;-0.772211;1.029127;0.6427875;2.266045;0.5542978;2.262204;
637952953366929394;1449.188;12;4;3.5;0.2;2;1339;2.61389096340553;0.9848077;1.673648;1.035532;1.747446;-0.8660251;0.9999995;-0.772211;1.029127;
637952953379601842;1450.448;12;4;3.5;0.2;2;1260;2.77777777777778;-0.9848078;1.673648;-0.9421737;1.634103;0.9848077;1.673648;1.035532;1.747446;
637952953398595520;1452.347;12;4;3.5;0.2;2;1899;1.84307530279094;0.8660256;1;0.7988832;1.023646;-0.9848078;1.673648;-0.9421737;1.634103;
637952953415588807;1454.046;12;4;3.5;0.2;2;1699;2.06003531489111;-0.6427882;2.266044;-0.580254;2.250486;0.8660256;1;0.7988832;1.023646;
637952953438583254;1456.346;12;4;3.5;0.2;2;2300;1.52173913043478;0.3420205;0.5603075;0.3228867;0.6116487;-0.6427882;2.266044;-0.580254;2.250486;
637952953483546996;1460.843;12;4;4;0.1;1.4;2799;1.4290818149339;-0.2394138;0.8422151;-0.1984718;0.8511236;0;2.2;0.02253614;2.185147;
637952953507650669;1463.253;12;4;4;0.1;1.4;2410;1.6597510373444;0.4499513;2.036231;0.4228536;2.052434;-0.2394138;0.8422151;-0.1984718;0.8511236;
637952953542630393;1466.751;12;4;4;0.1;1.4;3498;1.14351057747284;-0.6062176;1.15;-0.5685576;1.181632;0.4499513;2.036231;0.4228536;2.052434;
637952953570619906;1469.55;12;4;4;0.1;1.4;2799;1.4290818149339;0.6893654;1.621554;0.6648042;1.620897;-0.6062176;1.15;-0.5685576;1.181632;
637952953588613475;1471.349;12;4;4;0.1;1.4;1800;2.22222222222222;-0.6893655;1.621553;-0.6511151;1.653764;0.6893654;1.621554;0.6648042;1.620897;
637952953612608114;1473.748;12;4;4;0.1;1.4;2399;1.66736140058358;0.6062179;1.15;0.583063;1.110171;-0.6893655;1.621553;-0.6511151;1.653764;
637952953640693549;1476.558;12;4;4;0.1;1.4;2810;1.42348754448399;-0.4499517;2.036231;-0.4223417;2.046218;0.6062179;1.15;0.583063;1.110171;
637952953676680509;1480.156;12;4;4;0.1;1.4;3598;1.11172873818788;0.2394144;0.8422153;0.2577694;0.8758875;-0.4499517;2.036231;-0.4223417;2.046218;
637952953734761744;1485.965;12;4;3;0.2;1.4;3510;0.854700854700855;-0.2394138;0.8422151;-0.2177939;0.7762556;0;2.2;0.03446548;2.18862;
637952953745753869;1487.064;12;4;3;0.2;1.4;1099;2.72975432211101;0.4499513;2.036231;0.3907354;2.013095;-0.2394138;0.8422151;-0.2177939;0.7762556;
637952953760756771;1488.564;12;4;3;0.2;1.4;1500;2;-0.6062176;1.15;-0.5348827;1.190115;0.4499513;2.036231;0.3907354;2.013095;
637952953780740629;1490.562;12;4;3;0.2;1.4;1998;1.5015015015015;0.6893654;1.621554;0.7138632;1.609312;-0.6062176;1.15;-0.5348827;1.190115;
637952953794733346;1491.962;12;4;3;0.2;1.4;1399;2.14438884917798;-0.6893655;1.621553;-0.6950483;1.599009;0.6893654;1.621554;0.7138632;1.609312;
637952953813717015;1493.861;12;4;3;0.2;1.4;1899;1.57977883096367;0.6062179;1.15;0.6066269;1.191252;-0.6893655;1.621553;-0.6950483;1.599009;
637952953823938995;1494.89;12;4;3;0.2;1.4;1029;2.91545189504373;-0.4499517;2.036231;-0.3994748;1.950461;0.6062179;1.15;0.6066269;1.191252;
637952953851704366;1497.659;12;4;3;0.2;1.4;2769;1.08342361863489;0.2394144;0.8422153;0.1921777;0.8432095;-0.4499517;2.036231;-0.3994748;1.950461;
637952953895793574;1502.068;12;4;4.5;0.1;2.2;2569;1.7516543402102;-0.3762217;0.4663379;-0.3868628;0.5118574;0;2.6;0.0412632;2.571883;
637952953923769642;1504.867;12;4;4.5;0.1;2.2;2798;1.60829163688349;0.7070663;2.342649;0.6882917;2.359582;-0.3762217;0.4663379;-0.3868628;0.5118574;
637952953953759813;1507.865;12;4;4.5;0.1;2.2;2999;1.50050016672224;-0.9526277;0.9499994;-0.9414884;0.9471667;0.7070663;2.342649;0.6882917;2.359582;
637952953989740208;1511.464;12;4;4.5;0.1;2.2;3598;1.25069483046137;1.083289;1.691013;1.062785;1.696093;-0.9526277;0.9499994;-0.9414884;0.9471667;
637952954006733499;1513.163;12;4;4.5;0.1;2.2;1699;2.64861683343143;-1.083289;1.691012;-1.043582;1.717596;1.083289;1.691013;1.062785;1.696093;
637952954029837967;1515.473;12;4;4.5;0.1;2.2;2310;1.94805194805195;0.9526281;0.9500003;0.9499372;0.9947628;-1.083289;1.691012;-1.043582;1.717596;
637952954059823766;1518.472;12;4;4.5;0.1;2.2;2999;1.50050016672224;-0.7070671;2.342648;-0.7097064;2.311816;0.9526281;0.9500003;0.9499372;0.9947628;
637952954137778848;1526.268;12;4;4.5;0.1;2.2;7796;0.577219086711134;0.3762226;0.4663382;0.396878;0.4550388;-0.7070671;2.342648;-0.7097064;2.311816;
637952954185868148;1531.077;12;4;2.5;0.3;1.4;2310;1.08225108225108;-0.2394138;0.8422151;-0.1848713;0.981861;0;2.2;-0.03954253;2.126542;
637952954199190727;1532.417;12;4;2.5;0.3;1.4;1340;1.86567164179104;0.4499513;2.036231;0.3672224;1.915305;-0.2394138;0.8422151;-0.1848713;0.981861;
637952954221855109;1534.675;12;4;2.5;0.3;1.4;2259;1.10668437361664;-0.6062176;1.15;-0.5080957;1.238522;0.4499513;2.036231;0.3672224;1.915305;
637952954233847430;1535.875;12;4;2.5;0.3;1.4;1200;2.08333333333333;0.6893654;1.621554;0.5772739;1.687475;-0.6062176;1.15;-0.5080957;1.238522;
637952954255833344;1538.074;12;4;2.5;0.3;1.4;2198;1.13739763421292;-0.6893655;1.621553;-0.6212986;1.56746;0.6893654;1.621554;0.5772739;1.687475;
637952954282818564;1540.772;12;4;2.5;0.3;1.4;2699;0.926268988514265;0.6062179;1.15;0.5002958;1.252855;-0.6893655;1.621553;-0.6212986;1.56746;
637952954294816239;1541.972;12;4;2.5;0.3;1.4;1200;2.08333333333333;-0.4499517;2.036231;-0.3025392;2.013347;0.6062179;1.15;0.5002958;1.252855;
637952954306807187;1543.172;12;4;2.5;0.3;1.4;1199;2.08507089241034;0.2394144;0.8422153;0.115481;0.8700563;-0.4499517;2.036231;-0.3025392;2.013347;
637952955654265260;1677.92;12;5;4;0.1;1.4;1699;2.35432607416127;-0.2394138;0.8422151;-0.2205664;0.8884666;0;2.2;0.04060507;2.222515;
637952955673258935;1679.819;12;5;4;0.1;1.4;1899;2.10637177461822;0.4499513;2.036231;0.4243166;2.052677;-0.2394138;0.8422151;-0.2205664;0.8884666;
637952955697243573;1682.218;12;5;4;0.1;1.4;2399;1.66736140058358;-0.6062176;1.15;-0.5780829;1.183676;0.4499513;2.036231;0.4243166;2.052677;
637952955715341351;1684.028;12;5;4;0.1;1.4;1810;2.20994475138122;0.6893654;1.621554;0.6524431;1.635323;-0.6062176;1.15;-0.5780829;1.183676;
637952955732334637;1685.727;12;5;4;0.1;1.4;1699;2.35432607416127;-0.6893655;1.621553;-0.7003064;1.630356;0.6893654;1.621554;0.6524431;1.635323;
637952955751322135;1687.626;12;5;4;0.1;1.4;1899;2.10637177461822;0.6062179;1.15;0.6148977;1.18589;-0.6893655;1.621553;-0.7003064;1.630356;
637952955766323298;1689.126;12;5;4;0.1;1.4;1500;2.66666666666667;-0.4499517;2.036231;-0.4020997;2.022087;0.6062179;1.15;0.6148977;1.18589;
637952955796421913;1692.135;12;5;4;0.1;1.4;3010;1.32890365448505;0.2394144;0.8422153;0.218707;0.8793674;-0.4499517;2.036231;-0.4020997;2.022087;
637952955830400603;1695.534;12;5;3.5;0.2;2;1999;1.75087543771886;-0.3420197;0.5603072;-0.306341;0.6204365;0;2.5;0.05706059;2.548435;
637952955869378928;1699.432;12;5;3.5;0.2;2;3898;0.897896357106208;0.6427875;2.266045;0.6009634;2.223563;-0.3420197;0.5603072;-0.306341;0.6204365;
637952955886378198;1701.131;12;5;3.5;0.2;2;1699;2.06003531489111;-0.8660251;0.9999995;-0.7943249;1.039865;0.6427875;2.266045;0.6009634;2.223563;
637952955922465977;1704.741;12;5;3.5;0.2;2;3609;0.969797727902466;0.9848077;1.673648;0.9635329;1.708216;-0.8660251;0.9999995;-0.7943249;1.039865;
637952955953451970;1707.839;12;5;3.5;0.2;2;3099;1.12939657954179;-0.9848078;1.673648;-0.8864926;1.681351;0.9848077;1.673648;0.9635329;1.708216;
637952955972435644;1709.738;12;5;3.5;0.2;2;1899;1.84307530279094;0.8660256;1;0.794969;1.036138;-0.9848078;1.673648;-0.8864926;1.681351;
637952955988438737;1711.338;12;5;3.5;0.2;2;1599;2.18886804252658;-0.6427882;2.266044;-0.5910164;2.24428;0.8660256;1;0.794969;1.036138;
637952956023415504;1714.836;12;5;3.5;0.2;2;3499;1.0002857959417;0.3420205;0.5603075;0.3314246;0.6579833;-0.6427882;2.266044;-0.5910164;2.24428;
637952956041408986;1716.635;12;5;1.5;1.1;2;900;1.66666666666667;-0.3420197;0.5603072;-0.144406;1.042604;0;2.5;0.05127568;2.037641;
637952956063393237;1718.834;12;5;1.5;1.1;2;2199;0.682128240109141;0.6427875;2.266045;0.3279397;2.053288;-0.3420197;0.5603072;-0.144406;1.042604;
637952956073505187;1719.845;12;5;1.5;1.1;2;1011;1.48367952522255;-0.8660251;0.9999995;-0.5963173;1.356726;0.6427875;2.266045;0.3279397;2.053288;
637952956083407109;1720.834;12;5;1.5;1.1;2;990;1.51515151515152;0.9848077;1.673648;0.4907198;1.705387;-0.8660251;0.9999995;-0.5963173;1.356726;
637952956092488866;1721.744;12;5;1.5;1.1;2;910;1.64835164835165;-0.9848078;1.673648;-0.5816386;1.735431;0.9848077;1.673648;0.4907198;1.705387;
637952956101496543;1722.644;12;5;1.5;1.1;2;900;1.66666666666667;0.8660256;1;0.4480375;1.35624;-0.9848078;1.673648;-0.5816386;1.735431;
637952956110484053;1723.543;12;5;1.5;1.1;2;899;1.66852057842047;-0.6427882;2.266044;-0.2310628;2.126045;0.8660256;1;0.4480375;1.35624;
637952956121486182;1724.643;12;5;1.5;1.1;2;1100;1.36363636363636;0.3420205;0.5603075;0.06531126;0.9944742;-0.6427882;2.266044;-0.2310628;2.126045;
637952956153466725;1727.841;12;5;3;0.2;1.4;1899;1.57977883096367;-0.2394138;0.8422151;-0.1835991;0.9068611;0;2.2;0.04826726;2.143755;
637952956165459044;1729.04;12;5;3;0.2;1.4;1199;2.50208507089241;0.4499513;2.036231;0.3597144;2.073854;-0.2394138;0.8422151;-0.1835991;0.9068611;
637952956188452448;1731.34;12;5;3;0.2;1.4;2299;1.30491518051327;-0.6062176;1.15;-0.5413634;1.195037;0.4499513;2.036231;0.3597144;2.073854;
637952956213431697;1733.838;12;5;3;0.2;1.4;2499;1.20048019207683;0.6893654;1.621554;0.6846614;1.669179;-0.6062176;1.15;-0.5413634;1.195037;
637952956240526943;1736.548;12;5;3;0.2;1.4;2710;1.1070110701107;-0.6893655;1.621553;-0.5977606;1.639268;0.6893654;1.621554;0.6846614;1.669179;
637952956263521389;1738.847;12;5;3;0.2;1.4;2299;1.30491518051327;0.6062179;1.15;0.5728359;1.231774;-0.6893655;1.621553;-0.5977606;1.639268;
637952956279514483;1740.447;12;5;3;0.2;1.4;1599;1.87617260787993;-0.4499517;2.036231;-0.4363095;2.010968;0.6062179;1.15;0.5728359;1.231774;
637952956297507963;1742.246;12;5;3;0.2;1.4;1799;1.66759310728182;0.2394144;0.8422153;0.2740611;0.8828355;-0.4499517;2.036231;-0.4363095;2.010968;
637952956321792658;1744.682;12;5;2.5;0.3;1.4;1237;2.02101859337106;-0.2394138;0.8422151;-0.1843914;0.9813616;0;2.2;0.03559638;2.122223;
637952956331494541;1745.644;12;5;2.5;0.3;1.4;962;2.5987525987526;0.4499513;2.036231;0.3453446;2.055626;-0.2394138;0.8422151;-0.1843914;0.9813616;
637952956340486280;1746.543;12;5;2.5;0.3;1.4;899;2.78086763070078;-0.6062176;1.15;-0.6392771;1.160428;0.4499513;2.036231;0.3453446;2.055626;
637952956347487625;1747.244;12;5;2.5;0.3;1.4;700;3.57142857142857;0.6893654;1.621554;0.5628567;1.602343;-0.6062176;1.15;-0.6392771;1.160428;
637952956372462462;1749.742;12;5;2.5;0.3;1.4;2498;1.00080064051241;-0.6893655;1.621553;-0.6737553;1.629961;0.6893654;1.621554;0.5628567;1.602343;
637952956382574419;1750.753;12;5;2.5;0.3;1.4;1011;2.47279920870425;0.6062179;1.15;0.6083827;1.13092;-0.6893655;1.621553;-0.6737553;1.629961;
637952956394566738;1751.952;12;5;2.5;0.3;1.4;1199;2.08507089241034;-0.4499517;2.036231;-0.4475057;2.026711;0.6062179;1.15;0.6083827;1.13092;
637952956412560220;1753.751;12;5;2.5;0.3;1.4;1799;1.38966092273485;0.2394144;0.8422153;0.2382917;0.9625973;-0.4499517;2.036231;-0.4475057;2.026711;
637952956445646618;1757.061;12;5;4.5;0.1;2.2;1507;2.98606502986065;-0.3762217;0.4663379;-0.3683425;0.4935749;0;2.6;0.02722286;2.579403;
637952956465640488;1759.06;12;5;4.5;0.1;2.2;1999;2.25112556278139;0.7070663;2.342649;0.7035465;2.310773;-0.3762217;0.4663379;-0.3683425;0.4935749;
637952956481627046;1760.659;12;5;4.5;0.1;2.2;1599;2.81425891181989;-0.9526277;0.9499994;-0.9178292;0.9558336;0.7070663;2.342649;0.7035465;2.310773;
637952956512623042;1763.758;12;5;4.5;0.1;2.2;3099;1.45208131655373;1.083289;1.691013;1.07176;1.721939;-0.9526277;0.9499994;-0.9178292;0.9558336;
637952956531594804;1765.657;12;5;4.5;0.1;2.2;1899;2.3696682464455;-1.083289;1.691012;-1.036856;1.683376;1.083289;1.691013;1.07176;1.721939;
637952956542605815;1766.756;12;5;4.5;0.1;2.2;1100;4.09090909090909;0.9526281;0.9500003;0.9217127;0.9881926;-1.083289;1.691012;-1.036856;1.683376;
637952956558709464;1768.367;12;5;4.5;0.1;2.2;1610;2.79503105590062;-0.7070671;2.342648;-0.6772702;2.312195;0.9526281;0.9500003;0.9217127;0.9881926;
637952956575698651;1770.066;12;5;4.5;0.1;2.2;1700;2.64705882352941;0.3762226;0.4663382;0.3521242;0.487565;-0.7070671;2.342648;-0.6772702;2.312195;
637952956595689437;1772.065;12;5;2;0.6;1.8;900;2.22222222222222;-0.3078177;0.6542765;-0.3153416;0.9105752;0;2.4;0.1333578;2.39204;
637952956607678215;1773.264;12;5;2;0.6;1.8;1199;1.66805671392827;0.5785087;2.18944;0.4142256;2.248515;-0.3078177;0.6542765;-0.3153416;0.9105752;
637952956628666381;1775.363;12;5;2;0.6;1.8;2099;0.952834683182468;-0.7794226;1.05;-0.5903705;1.220839;0.5785087;2.18944;0.4142256;2.248515;
637952956639725217;1776.468;12;5;2;0.6;1.8;1105;1.80995475113122;0.8863269;1.656283;0.8090888;1.717127;-0.7794226;1.05;-0.5903705;1.220839;
637952956648905563;1777.393;12;5;2;0.6;1.8;925;2.16216216216216;-0.8863271;1.656283;-0.6056949;1.75733;0.8863269;1.656283;0.8090888;1.717127;
637952956659655296;1778.462;12;5;2;0.6;1.8;1069;1.87090739008419;0.779423;1.05;0.6151333;1.177572;-0.8863271;1.656283;-0.6056949;1.75733;
637952956677756909;1780.273;12;5;2;0.6;1.8;1810;1.10497237569061;-0.5785094;2.18944;-0.440488;2.063551;0.779423;1.05;0.6151333;1.177572;
637952956687758844;1781.272;12;5;2;0.6;1.8;999;2.002002002002;0.3078185;0.6542768;0.2477204;0.8956752;-0.5785094;2.18944;-0.440488;2.063551;
637952957622191764;1874.717;12;6;1.5;1.1;2;911;1.64654226125137;-0.3420197;0.5603072;-0.3144708;1.08698;0;2.5;0.002045045;2.070772;
637952957632183876;1875.717;12;6;1.5;1.1;2;1000;1.5;0.6427875;2.266045;0.3751373;2.050109;-0.3420197;0.5603072;-0.3144708;1.08698;
637952957640425617;1876.547;12;6;1.5;1.1;2;831;1.80505415162455;-0.8660251;0.9999995;-0.4198717;1.321631;0.6427875;2.266045;0.3751373;2.050109;
637952957653168306;1877.816;12;6;1.5;1.1;2;1268;1.18296529968454;0.9848077;1.673648;0.635431;1.745491;-0.8660251;0.9999995;-0.4198717;1.321631;
637952957663170419;1878.815;12;6;1.5;1.1;2;1000;1.5;-0.9848078;1.673648;-0.7436741;1.770593;0.9848077;1.673648;0.635431;1.745491;
637952957689155912;1881.414;12;6;1.5;1.1;2;2599;0.577145055790689;0.8660256;1;0.5374137;1.219136;-0.9848078;1.673648;-0.7436741;1.770593;
637952957700148234;1882.513;12;6;1.5;1.1;2;1099;1.36487716105551;-0.6427882;2.266044;-0.4155366;2.090004;0.8660256;1;0.5374137;1.219136;
637952957710140347;1883.513;12;6;1.5;1.1;2;1000;1.5;0.3420205;0.5603075;0.1311335;0.9624064;-0.6427882;2.266044;-0.4155366;2.090004;
637952957750128789;1887.511;12;6;2;0.6;1.8;2899;0.689893066574681;-0.3078177;0.6542765;-0.2247649;0.8526206;0;2.4;-0.01177843;2.289882;
637952957785218140;1891.021;12;6;2;0.6;1.8;3509;0.569962952408093;0.5785087;2.18944;0.3648491;2.117012;-0.3078177;0.6542765;-0.2247649;0.8526206;
637952957795220252;1892.021;12;6;2;0.6;1.8;1000;2;-0.7794226;1.05;-0.5843514;1.105549;0.5785087;2.18944;0.3648491;2.117012;
637952957807212789;1893.22;12;6;2;0.6;1.8;1199;1.66805671392827;0.8863269;1.656283;0.6168985;1.769963;-0.7794226;1.05;-0.5843514;1.105549;
637952957816460212;1894.154;12;6;2;0.6;1.8;934;2.14132762312634;-0.8863271;1.656283;-0.6006875;1.746032;0.8863269;1.656283;0.6168985;1.769963;
637952957852176138;1897.717;12;6;2;0.6;1.8;3564;0.561167227833895;0.779423;1.05;0.5705213;1.209738;-0.8863271;1.656283;-0.6006875;1.746032;
637952957862168248;1898.717;12;6;2;0.6;1.8;1000;2;-0.5785094;2.18944;-0.2976839;2.116143;0.779423;1.05;0.5705213;1.209738;
637952957890264180;1901.527;12;6;2;0.6;1.8;2810;0.711743772241993;0.3078185;0.6542768;0.1899615;0.8070309;-0.5785094;2.18944;-0.2976839;2.116143;
637952957949236640;1907.424;12;6;4.5;0.1;2.2;2998;1.50100066711141;-0.3762217;0.4663379;-0.3776225;0.5033829;0;2.6;0.02368421;2.569573;
637952957983223820;1910.823;12;6;4.5;0.1;2.2;3399;1.32391879964696;0.7070663;2.342649;0.6944385;2.344083;-0.3762217;0.4663379;-0.3776225;0.5033829;
637952958057579525;1918.266;12;6;4.5;0.1;2.2;7443;0.60459492140266;-0.9526277;0.9499994;-0.9379422;0.9958301;0.7070663;2.342649;0.6944385;2.344083;
637952958100278544;1922.528;12;6;4.5;0.1;2.2;4262;1.05584232754575;1.083289;1.691013;1.035763;1.699996;-0.9526277;0.9499994;-0.9379422;0.9958301;
637952958137257112;1926.227;12;6;4.5;0.1;2.2;3698;1.21687398593835;-1.083289;1.691012;-1.038862;1.70385;1.083289;1.691013;1.035763;1.699996;
637952958154360730;1927.937;12;6;4.5;0.1;2.2;1710;2.63157894736842;0.9526281;0.9500003;0.9459753;0.9609914;-1.083289;1.691012;-1.038862;1.70385;
637952958168583779;1929.366;12;6;4.5;0.1;2.2;1429;3.14905528341498;-0.7070671;2.342648;-0.706413;2.293187;0.9526281;0.9500003;0.9459753;0.9609914;
637952958208335713;1933.335;12;6;4.5;0.1;2.2;3968;1.13407258064516;0.3762226;0.4663382;0.3725252;0.5150367;-0.7070671;2.342648;-0.706413;2.293187;
637952958295294076;1942.03;12;6;3;0.2;1.4;5697;0.526592943654555;-0.2394138;0.8422151;-0.2530514;0.870967;0;2.2;0.00140243;2.153158;
637952958317398747;1944.24;12;6;3;0.2;1.4;2210;1.35746606334842;0.4499513;2.036231;0.3884606;2.048269;-0.2394138;0.8422151;-0.2530514;0.870967;
637952958328391073;1945.34;12;6;3;0.2;1.4;1099;2.72975432211101;-0.6062176;1.15;-0.6453482;1.181445;0.4499513;2.036231;0.3884606;2.048269;
637952958341383813;1946.639;12;6;3;0.2;1.4;1299;2.3094688221709;0.6893654;1.621554;0.6057376;1.58641;-0.6062176;1.15;-0.6453482;1.181445;
637952958382362464;1950.737;12;6;3;0.2;1.4;4098;0.732064421669107;-0.6893655;1.621553;-0.6264378;1.632694;0.6893654;1.621554;0.6057376;1.58641;
637952958413359019;1953.837;12;6;3;0.2;1.4;3099;0.968054211035818;0.6062179;1.15;0.5630397;1.173731;-0.6893655;1.621553;-0.6264378;1.632694;
637952958430342604;1955.535;12;6;3;0.2;1.4;1698;1.76678445229682;-0.4499517;2.036231;-0.3866699;2.002923;0.6062179;1.15;0.5630397;1.173731;
637952958458328508;1958.334;12;6;3;0.2;1.4;2799;1.07181136120043;0.2394144;0.8422153;0.2450208;0.8647565;-0.4499517;2.036231;-0.3866699;2.002923;
637952958502421041;1962.743;12;6;2.5;0.3;1.4;2399;1.04210087536474;-0.2394138;0.8422151;-0.1688499;0.9046948;0;2.2;-0.0008056667;2.11288;
637952958594372037;1971.939;12;6;2.5;0.3;1.4;9196;0.271857329273597;0.4499513;2.036231;0.3767948;2.063347;-0.2394138;0.8422151;-0.1688499;0.9046948;
637952958612475859;1973.749;12;6;2.5;0.3;1.4;1810;1.38121546961326;-0.6062176;1.15;-0.5180545;1.183978;0.4499513;2.036231;0.3767948;2.063347;
637952958648453463;1977.347;12;6;2.5;0.3;1.4;3598;0.694830461367426;0.6893654;1.621554;0.6637139;1.644385;-0.6062176;1.15;-0.5180545;1.183978;
637952958665447049;1979.046;12;6;2.5;0.3;1.4;1699;1.47145379635079;-0.6893655;1.621553;-0.6066991;1.610195;0.6893654;1.621554;0.6637139;1.644385;
637952958682440640;1980.745;12;6;2.5;0.3;1.4;1699;1.47145379635079;0.6062179;1.15;0.5098433;1.166407;-0.6893655;1.621553;-0.6066991;1.610195;
637952958701434650;1982.644;12;6;2.5;0.3;1.4;1899;1.31648235913639;-0.4499517;2.036231;-0.4009841;2.02195;0.6062179;1.15;0.5098433;1.166407;
637952958718428245;1984.344;12;6;2.5;0.3;1.4;1699;1.47145379635079;0.2394144;0.8422153;0.1895995;0.8612313;-0.4499517;2.036231;-0.4009841;2.02195;
637952958756406263;1988.142;12;6;3.5;0.2;2;1699;2.06003531489111;-0.3420197;0.5603072;-0.3204578;0.6533527;0;2.5;0.03845896;2.432104;
637952958772509667;1989.752;12;6;3.5;0.2;2;1610;2.17391304347826;0.6427875;2.266045;0.5503351;2.251489;-0.3420197;0.5603072;-0.3204578;0.6533527;
637952958787502832;1991.252;12;6;3.5;0.2;2;1500;2.33333333333333;-0.8660251;0.9999995;-0.7846705;1.036121;0.6427875;2.266045;0.5503351;2.251489;
637952958806496844;1993.151;12;6;3.5;0.2;2;1899;1.84307530279094;0.9848077;1.673648;0.908107;1.696055;-0.8660251;0.9999995;-0.7846705;1.036121;
637952958827491279;1995.251;12;6;3.5;0.2;2;2100;1.66666666666667;-0.9848078;1.673648;-0.9592082;1.702522;0.9848077;1.673648;0.908107;1.696055;
637952958845476660;1997.049;12;6;3.5;0.2;2;1798;1.94660734149054;0.8660256;1;0.801812;1.075883;-0.9848078;1.673648;-0.9592082;1.702522;
637952958863470456;1998.848;12;6;3.5;0.2;2;1799;1.94552529182879;-0.6427882;2.266044;-0.6682616;2.221527;0.8660256;1;0.801812;1.075883;
637952958880464049;2000.547;12;6;3.5;0.2;2;1699;2.06003531489111;0.3420205;0.5603075;0.3334176;0.650139;-0.6427882;2.266044;-0.6682616;2.221527;
637952958921551486;2004.656;12;6;4;0.1;1.4;1899;2.10637177461822;-0.2394138;0.8422151;-0.2092099;0.814459;0;2.2;0.0219047;2.177018;
637952958937541077;2006.256;12;6;4;0.1;1.4;1599;2.50156347717323;0.4499513;2.036231;0.4111976;2.055753;-0.2394138;0.8422151;-0.2092099;0.814459;
637952958965750883;2009.084;12;6;4;0.1;1.4;2828;1.41442715700141;-0.6062176;1.15;-0.5675706;1.181391;0.4499513;2.036231;0.4111976;2.055753;
637952958988515694;2011.354;12;6;4;0.1;1.4;2270;1.76211453744493;0.6893654;1.621554;0.6514294;1.625138;-0.6062176;1.15;-0.5675706;1.181391;
637952959006509494;2013.153;12;6;4;0.1;1.4;1799;2.22345747637576;-0.6893655;1.621553;-0.6552643;1.634247;0.6893654;1.621554;0.6514294;1.625138;
637952959022612908;2014.763;12;6;4;0.1;1.4;1610;2.48447204968944;0.6062179;1.15;0.5952745;1.19419;-0.6893655;1.621553;-0.6552643;1.634247;
637952959049598595;2017.462;12;6;4;0.1;1.4;2699;1.48203038162282;-0.4499517;2.036231;-0.4446956;2.00795;0.6062179;1.15;0.5952745;1.19419;
637952959062591337;2018.761;12;6;4;0.1;1.4;1299;3.07929176289453;0.2394144;0.8422153;0.2365063;0.8256166;-0.4499517;2.036231;-0.4446956;2.00795;
637952959850898643;2097.592;12;7;4.5;0.1;2.2;1899;2.3696682464455;-0.3762217;0.4663379;-0.3874744;0.5084305;0;2.6;0.04825669;2.598963;
637952959878890170;2100.39;12;7;4.5;0.1;2.2;2799;1.60771704180064;0.7070663;2.342649;0.6904808;2.332768;-0.3762217;0.4663379;-0.3874744;0.5084305;
637952959925861306;2105.088;12;7;4.5;0.1;2.2;4698;0.957854406130268;-0.9526277;0.9499994;-0.9146613;0.9781372;0.7070663;2.342649;0.6904808;2.332768;
637952959942854895;2106.787;12;7;4.5;0.1;2.2;1699;2.64861683343143;1.083289;1.691013;1.080133;1.682983;-0.9526277;0.9499994;-0.9146613;0.9781372;
637952959957958088;2108.298;12;7;4.5;0.1;2.2;1510;2.98013245033113;-1.083289;1.691012;-1.044531;1.713153;1.083289;1.691013;1.080133;1.682983;
637952959983943572;2110.896;12;7;4.5;0.1;2.2;2599;1.73143516737207;0.9526281;0.9500003;0.9347404;0.9818675;-1.083289;1.691012;-1.044531;1.713153;
637952960003937799;2112.896;12;7;4.5;0.1;2.2;1999;2.25112556278139;-0.7070671;2.342648;-0.6767206;2.311525;0.9526281;0.9500003;0.9347404;0.9818675;
637952960023922015;2114.894;12;7;4.5;0.1;2.2;1999;2.25112556278139;0.3762226;0.4663382;0.3853916;0.496331;-0.7070671;2.342648;-0.6767206;2.311525;
637952960050917719;2117.594;12;7;1.5;1.1;2;1699;0.882872277810477;-0.3420197;0.5603072;-0.2132945;1.076403;0;2.5;-0.05795118;2.020186;
637952960059909622;2118.493;12;7;1.5;1.1;2;900;1.66666666666667;0.6427875;2.266045;0.3468756;2.04859;-0.3420197;0.5603072;-0.2132945;1.076403;
637952960068901521;2119.393;12;7;1.5;1.1;2;899;1.66852057842047;-0.8660251;0.9999995;-0.6880848;1.437958;0.6427875;2.266045;0.3468756;2.04859;
637952960094897011;2121.991;12;7;1.5;1.1;2;2599;0.577145055790689;0.9848077;1.673648;0.4856971;1.712512;-0.8660251;0.9999995;-0.6880848;1.437958;
637952960104889119;2122.991;12;7;1.5;1.1;2;1000;1.5;-0.9848078;1.673648;-0.704142;1.846639;0.9848077;1.673648;0.4856971;1.712512;
637952960117991893;2124.301;12;7;1.5;1.1;2;1311;1.1441647597254;0.8660256;1;0.5519523;1.258071;-0.9848078;1.673648;-0.704142;1.846639;
637952960127983996;2125.301;12;7;1.5;1.1;2;999;1.5015015015015;-0.6427882;2.266044;-0.3639042;2.077969;0.8660256;1;0.5519523;1.258071;
637952960146978012;2127.2;12;7;1.5;1.1;2;1899;0.789889415481833;0.3420205;0.5603075;0.14555;0.8431252;-0.6427882;2.266044;-0.3639042;2.077969;
637952960177964558;2130.298;12;7;3;0.2;1.4;1599;1.87617260787993;-0.2394138;0.8422151;-0.1953157;0.8738115;0;2.2;0.004440704;2.194077;
637952960193277793;2131.837;12;7;3;0.2;1.4;1538;1.95058517555267;0.4499513;2.036231;0.3573083;2.000295;-0.2394138;0.8422151;-0.1953157;0.8738115;
637952960210944441;2133.597;12;7;3;0.2;1.4;1760;1.70454545454545;-0.6062176;1.15;-0.5201788;1.172146;0.4499513;2.036231;0.3573083;2.000295;
637952960243931407;2136.895;12;7;3;0.2;1.4;3299;0.9093664746893;0.6893654;1.621554;0.7015541;1.610102;-0.6062176;1.15;-0.5201788;1.172146;
637952960255925971;2138.095;12;7;3;0.2;1.4;1200;2.5;-0.6893655;1.621553;-0.609823;1.60747;0.6893654;1.621554;0.7015541;1.610102;
637952960265037895;2139.006;12;7;3;0.2;1.4;911;3.29308452250274;0.6062179;1.15;0.5371674;1.212387;-0.6893655;1.621553;-0.609823;1.60747;
637952960300017328;2142.504;12;7;3;0.2;1.4;3498;0.857632933104631;-0.4499517;2.036231;-0.4074486;1.984975;0.6062179;1.15;0.5371674;1.212387;
637952960315004324;2144.003;12;7;3;0.2;1.4;1500;2;0.2394144;0.8422153;0.1568866;0.8636659;-0.4499517;2.036231;-0.4074486;1.984975;
637952960382078496;2150.711;12;7;3.5;0.2;2;4609;0.759383814276416;-0.3420197;0.5603072;-0.3587298;0.6586169;0;2.5;-0.01661846;2.43183;
637952960398071869;2152.311;12;7;3.5;0.2;2;1599;2.18886804252658;0.6427875;2.266045;0.57652;2.252878;-0.3420197;0.5603072;-0.3587298;0.6586169;
637952960423057145;2154.809;12;7;3.5;0.2;2;2499;1.40056022408964;-0.8660251;0.9999995;-0.8331656;1.075769;0.6427875;2.266045;0.57652;2.252878;
637952960438050314;2156.308;12;7;3.5;0.2;2;1499;2.33488992661775;0.9848077;1.673648;0.9261178;1.681426;-0.8660251;0.9999995;-0.8331656;1.075769;
637952960460034960;2158.508;12;7;3.5;0.2;2;2199;1.59163256025466;-0.9848078;1.673648;-0.8992198;1.705271;0.9848077;1.673648;0.9261178;1.681426;
637952960484030025;2160.906;12;7;3.5;0.2;2;2399;1.45894122551063;0.8660256;1;0.7788264;1.035383;-0.9848078;1.673648;-0.8992198;1.705271;
637952960510015515;2163.505;12;7;3.5;0.2;2;2599;1.34667179684494;-0.6427882;2.266044;-0.6380512;2.248558;0.8660256;1;0.7788264;1.035383;
637952960531119974;2165.615;12;7;3.5;0.2;2;2110;1.65876777251185;0.3420205;0.5603075;0.28586;0.6126695;-0.6427882;2.266044;-0.6380512;2.248558;
637952960572368686;2169.748;12;7;4;0.1;1.4;2333;1.71453064723532;-0.2394138;0.8422151;-0.2564183;0.8891393;0;2.2;0.01033384;2.198415;
637952960587085715;2171.213;12;7;4;0.1;1.4;1465;2.73037542662116;0.4499513;2.036231;0.4649685;2.083038;-0.2394138;0.8422151;-0.2564183;0.8891393;
637952960601078761;2172.612;12;7;4;0.1;1.4;1399;2.85918513223731;-0.6062176;1.15;-0.5700936;1.163008;0.4499513;2.036231;0.4649685;2.083038;
637952960615071714;2174.011;12;7;4;0.1;1.4;1399;2.85918513223731;0.6893654;1.621554;0.6572333;1.603598;-0.6062176;1.15;-0.5700936;1.163008;
637952960629071339;2175.411;12;7;4;0.1;1.4;1399;2.85918513223731;-0.6893655;1.621553;-0.6525996;1.636177;0.6893654;1.621554;0.6572333;1.603598;
637952960710136463;2183.518;12;7;4;0.1;1.4;8107;0.493400764771185;0.6062179;1.15;0.5977479;1.183939;-0.6893655;1.621553;-0.6525996;1.636177;
637952960730130690;2185.517;12;7;4;0.1;1.4;1999;2.00100050025012;-0.4499517;2.036231;-0.46509;2.04636;0.6062179;1.15;0.5977479;1.183939;
637952960750114911;2187.516;12;7;4;0.1;1.4;1999;2.00100050025012;0.2394144;0.8422153;0.250789;0.8873719;-0.4499517;2.036231;-0.46509;2.04636;
637952960776110404;2190.115;12;7;2.5;0.3;1.4;1299;1.92455735180908;-0.2394138;0.8422151;-0.1993532;0.9290218;0;2.2;0.05613402;2.092859;
637952960789103145;2191.414;12;7;2.5;0.3;1.4;1299;1.92455735180908;0.4499513;2.036231;0.3604068;1.921595;-0.2394138;0.8422151;-0.1993532;0.9290218;
637952960811097796;2193.614;12;7;2.5;0.3;1.4;2199;1.1368804001819;-0.6062176;1.15;-0.5199227;1.249206;0.4499513;2.036231;0.3604068;1.921595;
637952960837083281;2196.212;12;7;2.5;0.3;1.4;2599;0.961908426317814;0.6893654;1.621554;0.5512644;1.668278;-0.6062176;1.15;-0.5199227;1.249206;
637952960866179428;2199.122;12;7;2.5;0.3;1.4;2910;0.859106529209622;-0.6893655;1.621553;-0.6120535;1.630256;0.6893654;1.621554;0.5512644;1.668278;
637952960884173228;2200.921;12;7;2.5;0.3;1.4;1799;1.38966092273485;0.6062179;1.15;0.485199;1.181473;-0.6893655;1.621553;-0.6120535;1.630256;
637952960896165762;2202.121;12;7;2.5;0.3;1.4;1199;2.08507089241034;-0.4499517;2.036231;-0.315335;1.999837;0.6062179;1.15;0.485199;1.181473;
637952960927147506;2205.219;12;7;2.5;0.3;1.4;3098;0.806972240154939;0.2394144;0.8422153;0.1865714;0.9806629;-0.4499517;2.036231;-0.315335;1.999837;
637952960999220759;2212.427;12;7;2;0.6;1.8;5509;0.363042294427301;-0.3078177;0.6542765;-0.2377597;0.833738;0;2.4;-0.002230715;2.256314;
637952961012215299;2213.726;12;7;2;0.6;1.8;1299;1.53964588144727;0.5785087;2.18944;0.3537511;2.076404;-0.3078177;0.6542765;-0.2377597;0.833738;
637952961038200789;2216.325;12;7;2;0.6;1.8;2599;0.769526741054252;-0.7794226;1.05;-0.5992092;1.094532;0.5785087;2.18944;0.3537511;2.076404;
637952961050201440;2217.525;12;7;2;0.6;1.8;1200;1.66666666666667;0.8863269;1.656283;0.5917679;1.602452;-0.7794226;1.05;-0.5992092;1.094532;
637952961085186872;2221.023;12;7;2;0.6;1.8;3498;0.571755288736421;-0.8863271;1.656283;-0.8465793;1.59653;0.8863269;1.656283;0.5917679;1.602452;
637952961132266719;2225.732;12;7;2;0.6;1.8;4709;0.424718623911659;0.779423;1.05;0.6401432;1.171247;-0.8863271;1.656283;-0.8465793;1.59653;
637952961159256756;2228.43;12;7;2;0.6;1.8;2699;0.741015190811412;-0.5785094;2.18944;-0.4792683;2.049391;0.779423;1.05;0.6401432;1.171247;
637952961170258937;2229.53;12;7;2;0.6;1.8;1100;1.81818181818182;0.3078185;0.6542768;0.1837469;0.9090788;-0.5785094;2.18944;-0.4792683;2.049391;
