637946000850928499;207.4662;13;0;2.5;0.3;1.4;1400;1.78571428571429;-0.2394138;0.8422151;-0.2616649;0.8752075;0;2.2;-0.05546287;2.182759;
637946000863922154;208.7654;13;0;2.5;0.3;1.4;1299;1.92455735180908;0.4499513;2.036231;0.3652294;1.99778;-0.2394138;0.8422151;-0.2616649;0.8752075;
637946000874905241;209.865;13;0;2.5;0.3;1.4;1100;2.27272727272727;-0.6062176;1.15;-0.6350033;1.154582;0.4499513;2.036231;0.3652294;1.99778;
637946000887905790;211.1644;13;0;2.5;0.3;1.4;1299;1.92455735180908;0.6893654;1.621554;0.6684571;1.575595;-0.6062176;1.15;-0.6350033;1.154582;
637946000897895692;212.1636;13;0;2.5;0.3;1.4;999;2.5025025025025;-0.6893655;1.621553;-0.7352727;1.593478;0.6893654;1.621554;0.6684571;1.575595;
637946000908896845;213.2633;13;0;2.5;0.3;1.4;1100;2.27272727272727;0.6062179;1.15;0.625563;1.164973;-0.6893655;1.621553;-0.7352727;1.593478;
637946000918894323;214.2626;13;0;2.5;0.3;1.4;999;2.5025025025025;-0.4499517;2.036231;-0.4482042;1.986943;0.6062179;1.15;0.625563;1.164973;
637946000928994816;215.2735;13;0;2.5;0.3;1.4;1011;2.47279920870425;0.2394144;0.8422153;0.2094869;0.7254382;-0.4499517;2.036231;-0.4482042;1.986943;
637946000989977339;221.3707;13;0;4.5;0.1;2.2;1999;2.25112556278139;-0.3762217;0.4663379;-0.3666334;0.5017532;0;2.6;0.0154593;2.596079;
637946001017965205;224.1693;13;0;4.5;0.1;2.2;2799;1.60771704180064;0.7070663;2.342649;0.7215607;2.337864;-0.3762217;0.4663379;-0.3666334;0.5017532;
637946001057056196;228.0787;13;0;4.5;0.1;2.2;3909;1.15118956254797;-0.9526277;0.9499994;-0.9242473;0.959295;0.7070663;2.342649;0.7215607;2.337864;
637946001078052099;230.1777;13;0;4.5;0.1;2.2;2099;2.14387803716055;1.083289;1.691013;1.058738;1.672919;-0.9526277;0.9499994;-0.9242473;0.959295;
637946001104039405;232.7764;13;0;4.5;0.1;2.2;2599;1.73143516737207;-1.083289;1.691012;-1.059115;1.674321;1.083289;1.691013;1.058738;1.672919;
637946001146021205;236.9745;13;0;4.5;0.1;2.2;4198;1.07193901858028;0.9526281;0.9500003;0.9355853;0.9751689;-1.083289;1.691012;-1.059115;1.674321;
637946001162015698;238.5736;13;0;4.5;0.1;2.2;1599;2.81425891181989;-0.7070671;2.342648;-0.6762525;2.303667;0.9526281;0.9500003;0.9355853;0.9751689;
637946001178010194;240.1733;13;0;4.5;0.1;2.2;1600;2.8125;0.3762226;0.4663382;0.400806;0.494832;-0.7070671;2.342648;-0.6762525;2.303667;
637946001208108656;243.1827;13;0;1.5;1.1;2;1499;1.00066711140761;-0.3420197;0.5603072;-0.2352773;0.9839625;0;2.5;0.00327093;2.271679;
637946001225093432;244.8819;13;0;1.5;1.1;2;1699;0.882872277810477;0.6427875;2.266045;0.4162808;2.028396;-0.3420197;0.5603072;-0.2352773;0.9839625;
637946001246073431;246.981;13;0;1.5;1.1;2;2099;0.714626012386851;-0.8660251;0.9999995;-0.5463977;1.424352;0.6427875;2.266045;0.4162808;2.028396;
637946001263068211;248.6802;13;0;1.5;1.1;2;1699;0.882872277810477;0.9848077;1.673648;0.4448656;1.660985;-0.8660251;0.9999995;-0.5463977;1.424352;
637946001277062141;250.0793;13;0;1.5;1.1;2;1399;1.07219442458899;-0.9848078;1.673648;-0.6772116;1.753553;0.9848077;1.673648;0.4448656;1.660985;
637946001290051512;251.3787;13;0;1.5;1.1;2;1299;1.15473441108545;0.8660256;1;0.5621406;1.326888;-0.9848078;1.673648;-0.6772116;1.753553;
637946001304159716;252.7893;13;0;1.5;1.1;2;1411;1.06307583274274;-0.6427882;2.266044;-0.5635855;1.899749;0.8660256;1;0.5621406;1.326888;
637946001318153651;254.1886;13;0;1.5;1.1;2;1399;1.07219442458899;0.3420205;0.5603075;0.2960099;0.8971454;-0.6427882;2.266044;-0.5635855;1.899749;
637946001379130789;260.2859;13;0;4;0.1;1.4;3998;1.00050025012506;-0.2394138;0.8422151;-0.2326588;0.850227;0;2.2;0.007048654;2.165527;
637946001397395926;262.1196;13;0;4;0.1;1.4;1834;2.18102508178844;0.4499513;2.036231;0.4386802;1.987562;-0.2394138;0.8422151;-0.2326588;0.850227;
637946001443108775;266.6828;13;0;4;0.1;1.4;4563;0.876616261231646;-0.6062176;1.15;-0.582844;1.161066;0.4499513;2.036231;0.4386802;1.987562;
637946001487221173;271.0933;13;0;4;0.1;1.4;4411;0.906823849467241;0.6893654;1.621554;0.6665688;1.60834;-0.6062176;1.15;-0.582844;1.161066;
637946001502195384;272.5913;13;0;4;0.1;1.4;1498;2.67022696929239;-0.6893655;1.621553;-0.6914897;1.648323;0.6893654;1.621554;0.6665688;1.60834;
637946001518189880;274.1904;13;0;4;0.1;1.4;1599;2.50156347717323;0.6062179;1.15;0.5851883;1.17536;-0.6893655;1.621553;-0.6914897;1.648323;
637946001575272673;279.8989;13;0;4;0.1;1.4;5708;0.700770847932726;-0.4499517;2.036231;-0.4533249;1.989475;0.6062179;1.15;0.5851883;1.17536;
637946001650238146;287.3954;13;0;4;0.1;1.4;7497;0.533546752034147;0.2394144;0.8422153;0.2274568;0.8483908;-0.4499517;2.036231;-0.4533249;1.989475;
637946001681348519;290.5053;13;0;3.5;0.2;2;1610;2.17391304347826;-0.3420197;0.5603072;-0.2825336;0.6316603;0;2.5;-0.00382934;2.415209;
637946001721329757;294.5034;13;0;3.5;0.2;2;3998;0.87543771885943;0.6427875;2.266045;0.6332056;2.183467;-0.3420197;0.5603072;-0.2825336;0.6316603;
637946001736323972;296.0024;13;0;3.5;0.2;2;1499;2.33488992661775;-0.8660251;0.9999995;-0.7885943;1.062674;0.6427875;2.266045;0.6332056;2.183467;
637946001752308463;297.6017;13;0;3.5;0.2;2;1599;2.18886804252658;0.9848077;1.673648;0.9674379;1.700459;-0.8660251;0.9999995;-0.7885943;1.062674;
637946001767632772;299.1415;13;0;3.5;0.2;2;1540;2.27272727272727;-0.9848078;1.673648;-0.8986403;1.624527;0.9848077;1.673648;0.9674379;1.700459;
637946001818397044;304.2097;13;0;3.5;0.2;2;5068;0.69060773480663;0.8660256;1;0.8183083;1.009696;-0.9848078;1.673648;-0.8986403;1.624527;
637946001832390980;305.6091;13;0;3.5;0.2;2;1399;2.50178699070765;-0.6427882;2.266044;-0.6210666;2.224757;0.8660256;1;0.8183083;1.009696;
637946001848385474;307.2084;13;0;3.5;0.2;2;1599;2.18886804252658;0.3420205;0.5603075;0.36112;0.6528237;-0.6427882;2.266044;-0.6210666;2.224757;
637946001879374186;310.3071;13;0;3;0.2;1.4;1799;1.66759310728182;-0.2394138;0.8422151;-0.2873598;0.7650062;0;2.2;-0.04005228;2.145765;
637946001921466014;314.5164;13;0;3;0.2;1.4;4209;0.712758374910905;0.4499513;2.036231;0.4104765;2.058453;-0.2394138;0.8422151;-0.2873598;0.7650062;
637946001935464993;315.9156;13;0;3;0.2;1.4;1399;2.14438884917798;-0.6062176;1.15;-0.5547295;1.226109;0.4499513;2.036231;0.4104765;2.058453;
637946001950465287;317.4156;13;0;3;0.2;1.4;1500;2;0.6893654;1.621554;0.6206964;1.632841;-0.6062176;1.15;-0.5547295;1.226109;
637946001963448934;318.7139;13;0;3;0.2;1.4;1298;2.31124807395994;-0.6893655;1.621553;-0.6473222;1.634385;0.6893654;1.621554;0.6206964;1.632841;
637946001978443150;320.2137;13;0;3;0.2;1.4;1500;2;0.6062179;1.15;0.6012447;1.222815;-0.6893655;1.621553;-0.6473222;1.634385;
637946001998438010;322.2125;13;0;3;0.2;1.4;1999;1.50075037518759;-0.4499517;2.036231;-0.4166111;1.955853;0.6062179;1.15;0.6012447;1.222815;
637946002073518056;329.72;13;0;3;0.2;1.4;7507;0.3996270147862;0.2394144;0.8422153;0.2285096;0.9186924;-0.4499517;2.036231;-0.4166111;1.955853;
637946002134495197;335.8174;13;0;2;0.6;1.8;4698;0.42571306939123;-0.3078177;0.6542765;-0.281712;0.7570412;0;2.4;0.01061347;2.224597;
637946002148489130;337.2167;13;0;2;0.6;1.8;1399;1.42959256611866;0.5785087;2.18944;0.4427901;2.033079;-0.3078177;0.6542765;-0.281712;0.7570412;
637946002159482221;338.3164;13;0;2;0.6;1.8;1100;1.81818181818182;-0.7794226;1.05;-0.7400025;1.052674;0.5785087;2.18944;0.4427901;2.033079;
637946002170475310;339.4157;13;0;2;0.6;1.8;1099;1.81983621474067;0.8863269;1.656283;0.6767852;1.53458;-0.7794226;1.05;-0.7400025;1.052674;
637946002180478121;340.4152;13;0;2;0.6;1.8;1000;2;-0.8863271;1.656283;-0.8699243;1.56111;0.8863269;1.656283;0.6767852;1.53458;
637946002194462052;341.8145;13;0;2;0.6;1.8;1399;1.42959256611866;0.779423;1.05;0.5553506;1.115661;-0.8863271;1.656283;-0.8699243;1.56111;
637946002207465709;343.114;13;0;2;0.6;1.8;1300;1.53846153846154;-0.5785094;2.18944;-0.574699;2.0358;0.779423;1.05;0.5553506;1.115661;
637946002220569396;344.4245;13;0;2;0.6;1.8;1310;1.52671755725191;0.3078185;0.6542768;0.2551847;0.7700483;-0.5785094;2.18944;-0.574699;2.0358;
637946003283023371;450.6641;13;1;2;0.6;1.8;1699;1.17716303708064;-0.3078177;0.6542765;-0.2176251;0.9040277;0;2.4;0.03075145;2.416545;
637946003298024061;452.1636;13;1;2;0.6;1.8;1500;1.33333333333333;0.5785087;2.18944;0.4864344;2.110651;-0.3078177;0.6542765;-0.2176251;0.9040277;
637946003311014659;453.4627;13;1;2;0.6;1.8;1299;1.53964588144727;-0.7794226;1.05;-0.5623153;1.1539;0.5785087;2.18944;0.4864344;2.110651;
637946003326006100;454.9619;13;1;2;0.6;1.8;1499;1.33422281521014;0.8863269;1.656283;0.7248585;1.660964;-0.7794226;1.05;-0.5623153;1.1539;
637946003338996181;456.2613;13;1;2;0.6;1.8;1299;1.53964588144727;-0.8863271;1.656283;-0.6655051;1.586886;0.8863269;1.656283;0.7248585;1.660964;
637946003351992485;457.5607;13;1;2;0.6;1.8;1299;1.53964588144727;0.779423;1.05;0.7356936;1.113106;-0.8863271;1.656283;-0.6655051;1.586886;
637946003364986136;458.86;13;1;2;0.6;1.8;1299;1.53964588144727;-0.5785094;2.18944;-0.4986042;2.084385;0.779423;1.05;0.7356936;1.113106;
637946003377989791;460.1597;13;1;2;0.6;1.8;1300;1.53846153846154;0.3078185;0.6542768;0.3307516;0.8076122;-0.5785094;2.18944;-0.4986042;2.084385;
637946003412349451;463.6036;13;1;4;0.1;1.4;1834;2.18102508178844;-0.2394138;0.8422151;-0.2600152;0.8873711;0;2.2;-0.003295157;2.161075;
637946003428073871;465.1684;13;1;4;0.1;1.4;1565;2.55591054313099;0.4499513;2.036231;0.477149;2.051678;-0.2394138;0.8422151;-0.2600152;0.8873711;
637946003493052138;471.6654;13;1;4;0.1;1.4;6497;0.615668770201631;-0.6062176;1.15;-0.5861469;1.185329;0.4499513;2.036231;0.477149;2.051678;
637946003507046068;473.0647;13;1;4;0.1;1.4;1399;2.85918513223731;0.6893654;1.621554;0.6568989;1.624612;-0.6062176;1.15;-0.5861469;1.185329;
637946003520039722;474.3641;13;1;4;0.1;1.4;1299;3.07929176289453;-0.6893655;1.621553;-0.6987316;1.619873;0.6893654;1.621554;0.6568989;1.624612;
637946003536034217;475.9633;13;1;4;0.1;1.4;1599;2.50156347717323;0.6062179;1.15;0.6003529;1.169594;-0.6893655;1.621553;-0.6987316;1.619873;
637946003551138463;477.4738;13;1;4;0.1;1.4;1510;2.64900662251656;-0.4499517;2.036231;-0.4143491;2.016631;0.6062179;1.15;0.6003529;1.169594;
637946003568133241;479.1732;13;1;4;0.1;1.4;1699;2.35432607416127;0.2394144;0.8422153;0.243707;0.8795124;-0.4499517;2.036231;-0.4143491;2.016631;
637946003614106164;483.7709;13;1;4.5;0.1;2.2;1799;2.50138966092273;-0.3762217;0.4663379;-0.3405562;0.4994243;0;2.6;0.003791758;2.558225;
637946003668092607;489.1687;13;1;4.5;0.1;2.2;5398;0.833642089662838;0.7070663;2.342649;0.6856412;2.317427;-0.3762217;0.4663379;-0.3405562;0.4994243;
637946003682190064;490.5786;13;1;4.5;0.1;2.2;1410;3.19148936170213;-0.9526277;0.9499994;-0.9382189;0.9901139;0.7070663;2.342649;0.6856412;2.317427;
637946003721179529;494.477;13;1;4.5;0.1;2.2;3898;1.15443817342227;1.083289;1.691013;1.049953;1.702226;-0.9526277;0.9499994;-0.9382189;0.9901139;
637946003758159923;498.1752;13;1;4.5;0.1;2.2;3698;1.21687398593835;-1.083289;1.691012;-1.039285;1.693017;1.083289;1.691013;1.049953;1.702226;
637946003778155544;500.1743;13;1;4.5;0.1;2.2;1999;2.25112556278139;0.9526281;0.9500003;0.9426597;0.9990008;-1.083289;1.691012;-1.039285;1.693017;
637946003815145941;503.8729;13;1;4.5;0.1;2.2;3699;1.21654501216545;-0.7070671;2.342648;-0.7234654;2.356712;0.9526281;0.9500003;0.9426597;0.9990008;
637946003893217887;511.6802;13;1;4.5;0.1;2.2;7807;0.576405789675932;0.3762226;0.4663382;0.3629293;0.4912705;-0.7070671;2.342648;-0.7234654;2.356712;
637946003926207164;514.9786;13;1;3.5;0.2;2;1799;1.94552529182879;-0.3420197;0.5603072;-0.3242976;0.6486788;0;2.5;0.01229832;2.419541;
637946003941201378;516.4779;13;1;3.5;0.2;2;1499;2.33488992661775;0.6427875;2.266045;0.6267833;2.203003;-0.3420197;0.5603072;-0.3242976;0.6486788;
637946003958196151;518.1771;13;1;3.5;0.2;2;1699;2.06003531489111;-0.8660251;0.9999995;-0.7954139;0.9983659;0.6427875;2.266045;0.6267833;2.203003;
637946003978191773;520.1771;13;1;3.5;0.2;2;2000;1.75;0.9848077;1.673648;0.9129606;1.645211;-0.8660251;0.9999995;-0.7954139;0.9983659;
637946003994291340;521.7864;13;1;3.5;0.2;2;1609;2.17526413921691;-0.9848078;1.673648;-0.9406143;1.656151;0.9848077;1.673648;0.9129606;1.645211;
637946004013283021;523.686;13;1;3.5;0.2;2;1900;1.84210526315789;0.8660256;1;0.809736;1.051152;-0.9848078;1.673648;-0.9406143;1.656151;
637946004035295452;525.8861;13;1;3.5;0.2;2;2200;1.59090909090909;-0.6427882;2.266044;-0.5950631;2.183573;0.8660256;1;0.809736;1.051152;
637946004059263221;528.2837;13;1;3.5;0.2;2;2398;1.45954962468724;0.3420205;0.5603075;0.3303049;0.6288117;-0.6427882;2.266044;-0.5950631;2.183573;
637946004090364085;531.3936;13;1;1.5;1.1;2;1311;1.1441647597254;-0.3420197;0.5603072;-0.251303;1.011666;0;2.5;0.02385286;2.354187;
637946004102365869;532.5931;13;1;1.5;1.1;2;1200;1.25;0.6427875;2.266045;0.4498209;2.118754;-0.3420197;0.5603072;-0.251303;1.011666;
637946004113348210;533.692;13;1;1.5;1.1;2;1099;1.36487716105551;-0.8660251;0.9999995;-0.6483641;1.270832;0.6427875;2.266045;0.4498209;2.118754;
637946004124352476;534.7916;13;1;1.5;1.1;2;1100;1.36363636363636;0.9848077;1.673648;0.9715014;1.830823;-0.8660251;0.9999995;-0.6483641;1.270832;
637946004136344043;535.9915;13;1;1.5;1.1;2;1200;1.25;-0.9848078;1.673648;-0.6480794;1.72913;0.9848077;1.673648;0.9715014;1.830823;
637946004147336494;537.0905;13;1;1.5;1.1;2;1099;1.36487716105551;0.8660256;1;0.9282092;1.287858;-0.9848078;1.673648;-0.6480794;1.72913;
637946004158329586;538.1899;13;1;1.5;1.1;2;1100;1.36363636363636;-0.6427882;2.266044;-0.5517942;2.10294;0.8660256;1;0.9282092;1.287858;
637946004170332958;539.3896;13;1;1.5;1.1;2;1200;1.25;0.3420205;0.5603075;0.4339531;0.9098233;-0.6427882;2.266044;-0.5517942;2.10294;
637946004198320181;542.1882;13;1;3;0.2;1.4;1499;2.00133422281521;-0.2394138;0.8422151;-0.1581911;0.8832705;0;2.2;-0.03872253;2.208186;
637946004213309766;543.6873;13;1;3;0.2;1.4;1499;2.00133422281521;0.4499513;2.036231;0.4060292;1.997033;-0.2394138;0.8422151;-0.1581911;0.8832705;
637946004244408030;546.7969;13;1;3;0.2;1.4;3110;0.964630225080386;-0.6062176;1.15;-0.5264177;1.188587;0.4499513;2.036231;0.4060292;1.997033;
637946004258409180;548.1968;13;1;3;0.2;1.4;1400;2.14285714285714;0.6893654;1.621554;0.6546771;1.62431;-0.6062176;1.15;-0.5264177;1.188587;
637946004276400455;549.9957;13;1;3;0.2;1.4;1799;1.66759310728182;-0.6893655;1.621553;-0.6486379;1.564798;0.6893654;1.621554;0.6546771;1.62431;
637946004289399869;551.2957;13;1;3;0.2;1.4;1300;2.30769230769231;0.6062179;1.15;0.5371448;1.161483;-0.6893655;1.621553;-0.6486379;1.564798;
637946004300386686;552.3945;13;1;3;0.2;1.4;1099;2.72975432211101;-0.4499517;2.036231;-0.4952368;1.998988;0.6062179;1.15;0.5371448;1.161483;
637946004316381179;553.9938;13;1;3;0.2;1.4;1599;1.87617260787993;0.2394144;0.8422153;0.2067596;0.9263859;-0.4499517;2.036231;-0.4952368;1.998988;
637946004344369047;556.7925;13;1;2.5;0.3;1.4;1599;1.56347717323327;-0.2394138;0.8422151;-0.1916823;0.9736454;0;2.2;0.01126858;2.1652;
637946004358473014;558.2029;13;1;2.5;0.3;1.4;1410;1.77304964539007;0.4499513;2.036231;0.4210964;2.088025;-0.2394138;0.8422151;-0.1916823;0.9736454;
637946004370466383;559.4026;13;1;2.5;0.3;1.4;1200;2.08333333333333;-0.6062176;1.15;-0.5462851;1.20885;0.4499513;2.036231;0.4210964;2.088025;
637946004383470039;560.7019;13;1;2.5;0.3;1.4;1299;1.92455735180908;0.6893654;1.621554;0.6068822;1.638567;-0.6062176;1.15;-0.5462851;1.20885;
637946004395453406;561.9012;13;1;2.5;0.3;1.4;1199;2.08507089241034;-0.6893655;1.621553;-0.5803714;1.586294;0.6893654;1.621554;0.6068822;1.638567;
637946004408457062;563.2006;13;1;2.5;0.3;1.4;1299;1.92455735180908;0.6062179;1.15;0.5294717;1.085029;-0.6893655;1.621553;-0.5803714;1.586294;
637946004420450433;564.4;13;1;2.5;0.3;1.4;1199;2.08507089241034;-0.4499517;2.036231;-0.5406102;1.961579;0.6062179;1.15;0.5294717;1.085029;
637946004432443797;565.5993;13;1;2.5;0.3;1.4;1199;2.08507089241034;0.2394144;0.8422153;0.2140629;0.904541;-0.4499517;2.036231;-0.5406102;1.961579;
637946005301768725;652.5259;13;2;3.5;0.2;2;1399;2.50178699070765;-0.3420197;0.5603072;-0.3426632;0.6024334;0;2.5;0.01536745;2.45311;
637946005317763223;654.1249;13;2;3.5;0.2;2;1599;2.18886804252658;0.6427875;2.266045;0.6186556;2.194963;-0.3420197;0.5603072;-0.3426632;0.6024334;
637946005333757720;655.7244;13;2;3.5;0.2;2;1599;2.18886804252658;-0.8660251;0.9999995;-0.8099157;1.019735;0.6427875;2.266045;0.6186556;2.194963;
637946005346751370;657.0238;13;2;3.5;0.2;2;1299;2.69438029253272;0.9848077;1.673648;0.9131392;1.607159;-0.8660251;0.9999995;-0.8099157;1.019735;
637946005376744227;660.0224;13;2;3.5;0.2;2;2999;1.16705568522841;-0.9848078;1.673648;-0.9435754;1.669593;0.9848077;1.673648;0.9131392;1.607159;
637946005392734918;661.6218;13;2;3.5;0.2;2;1599;2.18886804252658;0.8660256;1;0.8575482;1.061221;-0.9848078;1.673648;-0.9435754;1.669593;
637946005407846367;663.1324;13;2;3.5;0.2;2;1511;2.31634679020516;-0.6427882;2.266044;-0.5515749;2.235803;0.8660256;1;0.8575482;1.061221;
637946005421840306;664.5315;13;2;3.5;0.2;2;1399;2.50178699070765;0.3420205;0.5603075;0.293789;0.6382307;-0.6427882;2.266044;-0.5515749;2.235803;
637946005450829534;667.4302;13;2;3;0.2;1.4;1399;2.14438884917798;-0.2394138;0.8422151;-0.2259571;0.8967227;0;2.2;-0.00606529;2.192713;
637946005466815003;669.0293;13;2;3;0.2;1.4;1599;1.87617260787993;0.4499513;2.036231;0.4047427;1.970294;-0.2394138;0.8422151;-0.2259571;0.8967227;
637946005485804003;670.9285;13;2;3;0.2;1.4;1899;1.57977883096367;-0.6062176;1.15;-0.5213851;1.174624;0.4499513;2.036231;0.4047427;1.970294;
637946005498805989;672.2279;13;2;3;0.2;1.4;1299;2.3094688221709;0.6893654;1.621554;0.6432274;1.599001;-0.6062176;1.15;-0.5213851;1.174624;
637946005512906391;673.6382;13;2;3;0.2;1.4;1410;2.12765957446809;-0.6893655;1.621553;-0.6247481;1.592142;0.6893654;1.621554;0.6432274;1.599001;
637946005525904908;674.9376;13;2;3;0.2;1.4;1299;2.3094688221709;0.6062179;1.15;0.5503145;1.219241;-0.6893655;1.621553;-0.6247481;1.592142;
637946005541889403;676.5368;13;2;3;0.2;1.4;1599;1.87617260787993;-0.4499517;2.036231;-0.4003587;1.986715;0.6062179;1.15;0.5503145;1.219241;
637946005556893619;678.0365;13;2;3;0.2;1.4;1500;2;0.2394144;0.8422153;0.2358686;0.8785479;-0.4499517;2.036231;-0.4003587;1.986715;
637946005587882328;681.1351;13;2;2.5;0.3;1.4;1599;1.56347717323327;-0.2394138;0.8422151;-0.2081834;0.902916;0;2.2;0.0263585;2.063922;
637946005603866822;682.7341;13;2;2.5;0.3;1.4;1599;1.56347717323327;0.4499513;2.036231;0.3542557;1.956122;-0.2394138;0.8422151;-0.2081834;0.902916;
637946005616870477;684.0334;13;2;2.5;0.3;1.4;1299;1.92455735180908;-0.6062176;1.15;-0.5122753;1.126474;0.4499513;2.036231;0.3542557;1.956122;
637946005629864130;685.3328;13;2;2.5;0.3;1.4;1299;1.92455735180908;0.6893654;1.621554;0.6720915;1.654482;-0.6062176;1.15;-0.5122753;1.126474;
637946005643167867;686.6707;13;2;2.5;0.3;1.4;1338;1.86846038863976;-0.6893655;1.621553;-0.5394933;1.625841;0.6893654;1.621554;0.6720915;1.654482;
637946005656851720;688.0314;13;2;2.5;0.3;1.4;1361;1.83688464364438;0.6062179;1.15;0.4880993;1.239834;-0.6893655;1.621553;-0.5394933;1.625841;
637946005669845370;689.3311;13;2;2.5;0.3;1.4;1300;1.92307692307692;-0.4499517;2.036231;-0.441237;1.93593;0.6062179;1.15;0.4880993;1.239834;
637946005682949050;690.6417;13;2;2.5;0.3;1.4;1311;1.906941266209;0.2394144;0.8422153;0.1769867;0.9744706;-0.4499517;2.036231;-0.441237;1.93593;
637946005734923662;695.8391;13;2;4.5;0.1;2.2;2299;1.9573727707699;-0.3762217;0.4663379;-0.4089301;0.4603919;0;2.6;-0.03110936;2.610671;
637946005746917036;697.0386;13;2;4.5;0.1;2.2;1199;3.75312760633862;0.7070663;2.342649;0.6793051;2.336545;-0.3762217;0.4663379;-0.4089301;0.4603919;
637946005760920972;698.438;13;2;4.5;0.1;2.2;1399;3.21658327376698;-0.9526277;0.9499994;-0.9543422;0.908833;0.7070663;2.342649;0.6793051;2.336545;
637946005774914904;699.8373;13;2;4.5;0.1;2.2;1399;3.21658327376698;1.083289;1.691013;1.057467;1.700819;-0.9526277;0.9499994;-0.9543422;0.908833;
637946005787908558;701.1367;13;2;4.5;0.1;2.2;1299;3.46420323325635;-1.083289;1.691012;-1.108006;1.681451;1.083289;1.691013;1.057467;1.700819;
637946005822894893;704.6351;13;2;4.5;0.1;2.2;3498;1.28644939965695;0.9526281;0.9500003;0.9159243;0.9462581;-1.083289;1.691012;-1.108006;1.681451;
637946005854993565;707.8446;13;2;4.5;0.1;2.2;3209;1.40230601433468;-0.7070671;2.342648;-0.6808944;2.343516;0.9526281;0.9500003;0.9159243;0.9462581;
637946005874983681;709.8439;13;2;4.5;0.1;2.2;1999;2.25112556278139;0.3762226;0.4663382;0.3681441;0.5078521;-0.7070671;2.342648;-0.6808944;2.343516;
637946005896974450;712.0432;13;2;2;0.6;1.8;1000;2;-0.3078177;0.6542765;-0.2661996;0.7327433;0;2.4;0.003013024;2.43837;
637946005906084984;712.9533;13;2;2;0.6;1.8;910;2.1978021978022;0.5785087;2.18944;0.5330145;2.10598;-0.3078177;0.6542765;-0.2661996;0.7327433;
637946005916085533;713.9533;13;2;2;0.6;1.8;1000;2;-0.7794226;1.05;-0.7647663;1.001781;0.5785087;2.18944;0.5330145;2.10598;
637946005926076098;714.9524;13;2;2;0.6;1.8;999;2.002002002002;0.8863269;1.656283;0.8507545;1.674122;-0.7794226;1.05;-0.7647663;1.001781;
637946005938067053;716.1522;13;2;2;0.6;1.8;1200;1.66666666666667;-0.8863271;1.656283;-0.751443;1.606443;0.8863269;1.656283;0.8507545;1.674122;
637946005948069579;717.1516;13;2;2;0.6;1.8;999;2.002002002002;0.779423;1.05;0.7320442;1.078819;-0.8863271;1.656283;-0.751443;1.606443;
637946005959062720;718.2512;13;2;2;0.6;1.8;1100;1.81818181818182;-0.5785094;2.18944;-0.552412;2.089178;0.779423;1.05;0.7320442;1.078819;
637946005969055526;719.2504;13;2;2;0.6;1.8;999;2.002002002002;0.3078185;0.6542768;0.3233258;0.7687783;-0.5785094;2.18944;-0.552412;2.089178;
637946005989071155;721.251;13;2;1.5;1.1;2;901;1.66481687014428;-0.3420197;0.5603072;-0.3519471;0.8832386;0;2.5;0.06335758;2.136407;
637946005998043673;722.1493;13;2;1.5;1.1;2;898;1.67037861915367;0.6427875;2.266045;0.5419528;2.115159;-0.3420197;0.5603072;-0.3519471;0.8832386;
637946006007046203;723.0488;13;2;1.5;1.1;2;900;1.66666666666667;-0.8660251;0.9999995;-0.6488779;1.113681;0.6427875;2.266045;0.5419528;2.115159;
637946006016038730;723.948;13;2;1.5;1.1;2;899;1.66852057842047;0.9848077;1.673648;0.7367908;1.741042;-0.8660251;0.9999995;-0.6488779;1.113681;
637946006026031542;724.9478;13;2;1.5;1.1;2;1000;1.5;-0.9848078;1.673648;-0.6872403;1.555038;0.9848077;1.673648;0.7367908;1.741042;
637946006036024350;725.9473;13;2;1.5;1.1;2;1000;1.5;0.8660256;1;0.6281289;1.278202;-0.9848078;1.673648;-0.6872403;1.555038;
637946006046137192;726.9581;13;2;1.5;1.1;2;1011;1.48367952522255;-0.6427882;2.266044;-0.7146757;1.825709;0.8660256;1;0.6281289;1.278202;
637946006057130277;728.0574;13;2;1.5;1.1;2;1099;1.36487716105551;0.3420205;0.5603075;0.2316148;0.9855673;-0.6427882;2.266044;-0.7146757;1.825709;
637946006105113772;732.8552;13;2;4;0.1;1.4;1399;2.85918513223731;-0.2394138;0.8422151;-0.2532035;0.884221;0;2.2;0.0111776;2.183156;
637946006129100516;735.2541;13;2;4;0.1;1.4;2399;1.66736140058358;0.4499513;2.036231;0.461212;2.052724;-0.2394138;0.8422151;-0.2532035;0.884221;
637946006146475396;736.9987;13;2;4;0.1;1.4;1745;2.29226361031519;-0.6062176;1.15;-0.5618035;1.131;0.4499513;2.036231;0.461212;2.052724;
637946006163090070;738.6525;13;2;4;0.1;1.4;1654;2.41837968561064;0.6893654;1.621554;0.6649091;1.591923;-0.6062176;1.15;-0.5618035;1.131;
637946006178084285;740.1519;13;2;4;0.1;1.4;1499;2.66844563042028;-0.6893655;1.621553;-0.6686091;1.587021;0.6893654;1.621554;0.6649091;1.591923;
637946006191077939;741.4517;13;2;4;0.1;1.4;1300;3.07692307692308;0.6062179;1.15;0.5664473;1.157819;-0.6893655;1.621553;-0.6686091;1.587021;
637946006215544810;743.9055;13;2;4;0.1;1.4;2454;1.62999185004075;-0.4499517;2.036231;-0.4976356;2.033498;0.6062179;1.15;0.5664473;1.157819;
637946006227168080;745.0605;13;2;4;0.1;1.4;1155;3.46320346320346;0.2394144;0.8422153;0.2050362;0.8399043;-0.4499517;2.036231;-0.4976356;2.033498;
637946006907449192;813.0851;13;3;1.5;1.1;2;1199;1.25104253544621;-0.3420197;0.5603072;-0.3089409;1.012638;0;2.5;-0.01309324;2.36441;
637946006918432274;814.1843;13;3;1.5;1.1;2;1099;1.36487716105551;0.6427875;2.266045;0.3499344;1.848111;-0.3420197;0.5603072;-0.3089409;1.012638;
637946006928435087;815.1843;13;3;1.5;1.1;2;1000;1.5;-0.8660251;0.9999995;-0.600431;1.348723;0.6427875;2.266045;0.3499344;1.848111;
637946006938427891;816.1834;13;3;1.5;1.1;2;999;1.5015015015015;0.9848077;1.673648;0.7972;1.684804;-0.8660251;0.9999995;-0.600431;1.348723;
637946006946420144;816.9829;13;3;1.5;1.1;2;800;1.875;-0.9848078;1.673648;-0.7858469;1.66178;0.9848077;1.673648;0.7972;1.684804;
637946006954412391;817.7824;13;3;1.5;1.1;2;799;1.87734668335419;0.8660256;1;0.5625244;1.284513;-0.9848078;1.673648;-0.7858469;1.66178;
637946006963414921;818.6821;13;3;1.5;1.1;2;900;1.66666666666667;-0.6427882;2.266044;-0.5733132;2.014993;0.8660256;1;0.5625244;1.284513;
637946006970416888;819.3819;13;3;1.5;1.1;2;700;2.14285714285714;0.3420205;0.5603075;0.2693149;1.007334;-0.6427882;2.266044;-0.5733132;2.014993;
637946006997514500;822.0917;13;3;3.5;0.2;2;1499;2.33488992661775;-0.3420197;0.5603072;-0.3099606;0.6538293;0;2.5;-0.02635857;2.412239;
637946007010508156;823.3913;13;3;3.5;0.2;2;1300;2.69230769230769;0.6427875;2.266045;0.6145103;2.222895;-0.3420197;0.5603072;-0.3099606;0.6538293;
637946007023504641;824.6905;13;3;3.5;0.2;2;1299;2.69438029253272;-0.8660251;0.9999995;-0.8372151;1.049833;0.6427875;2.266045;0.6145103;2.222895;
637946007034497731;825.79;13;3;3.5;0.2;2;1100;3.18181818181818;0.9848077;1.673648;0.9491116;1.667324;-0.8660251;0.9999995;-0.8372151;1.049833;
637946007045490823;826.8892;13;3;3.5;0.2;2;1099;3.18471337579618;-0.9848078;1.673648;-0.9530056;1.67413;0.9848077;1.673648;0.9491116;1.667324;
637946007057483287;828.0889;13;3;3.5;0.2;2;1200;2.91666666666667;0.8660256;1;0.8428178;1.044313;-0.9848078;1.673648;-0.9530056;1.67413;
637946007077482091;830.0884;13;3;3.5;0.2;2;1999;1.75087543771886;-0.6427882;2.266044;-0.7022178;2.224447;0.8660256;1;0.8428178;1.044313;
637946007098471735;832.1869;13;3;3.5;0.2;2;2099;1.66746069556932;0.3420205;0.5603075;0.3212906;0.6249747;-0.6427882;2.266044;-0.7022178;2.224447;
637946007122464142;834.5861;13;3;2.5;0.3;1.4;1399;1.78699070764832;-0.2394138;0.8422151;-0.1058484;0.9082022;0;2.2;0.011581;2.218694;
637946007134564018;835.7965;13;3;2.5;0.3;1.4;1210;2.06611570247934;0.4499513;2.036231;0.3917105;1.999356;-0.2394138;0.8422151;-0.1058484;0.9082022;
637946007146564161;836.996;13;3;2.5;0.3;1.4;1199;2.08507089241034;-0.6062176;1.15;-0.5662382;1.19249;0.4499513;2.036231;0.3917105;1.999356;
637946007155554646;837.8954;13;3;2.5;0.3;1.4;899;2.78086763070078;0.6893654;1.621554;0.7155468;1.539764;-0.6062176;1.15;-0.5662382;1.19249;
637946007166555543;838.9949;13;3;2.5;0.3;1.4;1099;2.27479526842584;-0.6893655;1.621553;-0.6157785;1.532182;0.6893654;1.621554;0.7155468;1.539764;
637946007175556238;839.8945;13;3;2.5;0.3;1.4;900;2.77777777777778;0.6062179;1.15;0.6993859;1.193521;-0.6893655;1.621553;-0.6157785;1.532182;
637946007186546500;840.9943;13;3;2.5;0.3;1.4;1100;2.27272727272727;-0.4499517;2.036231;-0.4845341;2.026387;0.6062179;1.15;0.6993859;1.193521;
637946007201537439;842.4933;13;3;2.5;0.3;1.4;1499;1.66777851901268;0.2394144;0.8422153;0.2379825;0.9718533;-0.4499517;2.036231;-0.4845341;2.026387;
637946007225528616;844.8922;13;3;3;0.2;1.4;1199;2.50208507089241;-0.2394138;0.8422151;-0.2539016;0.8912627;0;2.2;-0.00938305;2.200472;
637946007236525872;845.9917;13;3;3;0.2;1.4;1100;2.72727272727273;0.4499513;2.036231;0.425087;2.002198;-0.2394138;0.8422151;-0.2539016;0.8912627;
637946007250519806;847.3914;13;3;3;0.2;1.4;1400;2.14285714285714;-0.6062176;1.15;-0.5690069;1.151587;0.4499513;2.036231;0.425087;2.002198;
637946007259522337;848.2907;13;3;3;0.2;1.4;899;3.33704115684093;0.6893654;1.621554;0.760682;1.587697;-0.6062176;1.15;-0.5690069;1.151587;
637946007274626586;849.8015;13;3;3;0.2;1.4;1511;1.98544010589014;-0.6893655;1.621553;-0.6444392;1.59946;0.6893654;1.621554;0.760682;1.587697;
637946007284619392;850.8008;13;3;3;0.2;1.4;999;3.003003003003;0.6062179;1.15;0.5978846;1.160941;-0.6893655;1.621553;-0.6444392;1.59946;
637946007303604728;852.6996;13;3;3;0.2;1.4;1899;1.57977883096367;-0.4499517;2.036231;-0.44194;2.021259;0.6062179;1.15;0.5978846;1.160941;
637946007315608102;853.8992;13;3;3;0.2;1.4;1200;2.5;0.2394144;0.8422153;0.2080407;0.9134344;-0.4499517;2.036231;-0.44194;2.021259;
637946007335593717;855.8981;13;3;2;0.6;1.8;900;2.22222222222222;-0.3078177;0.6542765;-0.3221105;0.7363228;0;2.4;-0.03224021;2.3601;
637946007344596250;856.7979;13;3;2;0.6;1.8;900;2.22222222222222;0.5785087;2.18944;0.5337633;2.177389;-0.3078177;0.6542765;-0.3221105;0.7363228;
637946007353598782;857.6976;13;3;2;0.6;1.8;900;2.22222222222222;-0.7794226;1.05;-0.5361266;1.104882;0.5785087;2.18944;0.5337633;2.177389;
637946007362591307;858.5968;13;3;2;0.6;1.8;899;2.22469410456062;0.8863269;1.656283;0.8039975;1.738712;-0.7794226;1.05;-0.5361266;1.104882;
637946007371583835;859.4965;13;3;2;0.6;1.8;900;2.22222222222222;-0.8863271;1.656283;-0.77719;1.628917;0.8863269;1.656283;0.8039975;1.738712;
637946007380576366;860.3961;13;3;2;0.6;1.8;900;2.22222222222222;0.779423;1.05;0.6638568;1.309352;-0.8863271;1.656283;-0.77719;1.628917;
637946007389578895;861.296;13;3;2;0.6;1.8;900;2.22222222222222;-0.5785094;2.18944;-0.4803492;2.107909;0.779423;1.05;0.6638568;1.309352;
637946007400571986;862.3956;13;3;2;0.6;1.8;1100;1.81818181818182;0.3078185;0.6542768;0.2940161;0.8386267;-0.5785094;2.18944;-0.4803492;2.107909;
637946007441663537;866.5046;13;3;4.5;0.1;2.2;1876;2.39872068230277;-0.3762217;0.4663379;-0.3946091;0.5040684;0;2.6;-0.008981764;2.550938;
637946007461659156;868.5035;13;3;4.5;0.1;2.2;1999;2.25112556278139;0.7070663;2.342649;0.6813353;2.309244;-0.3762217;0.4663379;-0.3946091;0.5040684;
637946007494638425;871.8021;13;3;4.5;0.1;2.2;3299;1.36404971203395;-0.9526277;0.9499994;-0.931994;0.9924595;0.7070663;2.342649;0.6813353;2.309244;
637946007517632470;874.101;13;3;4.5;0.1;2.2;2299;1.9573727707699;1.083289;1.691013;1.080258;1.718989;-0.9526277;0.9499994;-0.931994;0.9924595;
637946007540622003;876.4;13;3;4.5;0.1;2.2;2299;1.9573727707699;-1.083289;1.691012;-1.050768;1.709066;1.083289;1.691013;1.080258;1.718989;
637946007556614168;877.9992;13;3;4.5;0.1;2.2;1599;2.81425891181989;0.9526281;0.9500003;0.9212295;0.9558167;-1.083289;1.691012;-1.050768;1.709066;
637946007575725086;879.9096;13;3;4.5;0.1;2.2;1910;2.35602094240838;-0.7070671;2.342648;-0.6865724;2.299187;0.9526281;0.9500003;0.9212295;0.9558167;
637946007593714454;881.7087;13;3;4.5;0.1;2.2;1799;2.50138966092273;0.3762226;0.4663382;0.366905;0.5150397;-0.7070671;2.342648;-0.6865724;2.299187;
637946007635697008;885.9066;13;3;4;0.1;1.4;1999;2.00100050025012;-0.2394138;0.8422151;-0.2461083;0.8763961;0;2.2;0.01474044;2.236219;
637946007650691224;887.4061;13;3;4;0.1;1.4;1499;2.66844563042028;0.4499513;2.036231;0.4707307;2.005813;-0.2394138;0.8422151;-0.2461083;0.8763961;
637946007663684875;888.7054;13;3;4;0.1;1.4;1299;3.07929176289453;-0.6062176;1.15;-0.5573311;1.158146;0.4499513;2.036231;0.4707307;2.005813;
637946007676678529;890.0046;13;3;4;0.1;1.4;1299;3.07929176289453;0.6893654;1.621554;0.6607753;1.600495;-0.6062176;1.15;-0.5573311;1.158146;
637946007687671622;891.104;13;3;4;0.1;1.4;1099;3.63967242948135;-0.6893655;1.621553;-0.6647;1.585755;0.6893654;1.621554;0.6607753;1.600495;
637946007701785586;892.5148;13;3;4;0.1;1.4;1411;2.83486888731396;0.6062179;1.15;0.5752282;1.17144;-0.6893655;1.621553;-0.6647;1.585755;
637946007725772328;894.9134;13;3;4;0.1;1.4;2399;1.66736140058358;-0.4499517;2.036231;-0.4162039;2.036434;0.6062179;1.15;0.5752282;1.17144;
637946007740986607;896.4423;13;3;4;0.1;1.4;1529;2.6160889470242;0.2394144;0.8422153;0.1988264;0.8705347;-0.4499517;2.036231;-0.4162039;2.036434;
637946009015561608;1023.893;13;4;4.5;0.1;2.2;1838;2.44831338411317;-0.3762217;0.4663379;-0.3919193;0.5128689;0;2.6;0.02008231;2.572938;
637946009028245168;1025.153;13;4;4.5;0.1;2.2;1260;3.57142857142857;0.7070663;2.342649;0.6964247;2.381953;-0.3762217;0.4663379;-0.3919193;0.5128689;
637946009056344675;1027.963;13;4;4.5;0.1;2.2;2810;1.60142348754448;-0.9526277;0.9499994;-0.9174204;0.9729304;0.7070663;2.342649;0.6964247;2.381953;
637946009077336562;1030.062;13;4;4.5;0.1;2.2;2099;2.14387803716055;1.083289;1.691013;1.051787;1.715281;-0.9526277;0.9499994;-0.9174204;0.9729304;
637946009092329131;1031.561;13;4;4.5;0.1;2.2;1499;3.00200133422282;-1.083289;1.691012;-1.069623;1.697126;1.083289;1.691013;1.051787;1.715281;
637946009116540695;1033.99;13;4;4.5;0.1;2.2;2428;1.85337726523888;0.9526281;0.9500003;0.9196667;0.9830645;-1.083289;1.691012;-1.069623;1.697126;
637946009138306811;1036.159;13;4;4.5;0.1;2.2;2170;2.07373271889401;-0.7070671;2.342648;-0.669679;2.350973;0.9526281;0.9500003;0.9196667;0.9830645;
637946009155301586;1037.859;13;4;4.5;0.1;2.2;1699;2.64861683343143;0.3762226;0.4663382;0.3775927;0.5151492;-0.7070671;2.342648;-0.669679;2.350973;
637946009182289176;1040.557;13;4;3;0.2;1.4;1700;1.76470588235294;-0.2394138;0.8422151;-0.2135561;0.8944541;0;2.2;0.02135779;2.15249;
637946009192642086;1041.6;13;4;3;0.2;1.4;1042;2.87907869481766;0.4499513;2.036231;0.5398646;2.038008;-0.2394138;0.8422151;-0.2135561;0.8944541;
637946009202394830;1042.568;13;4;3;0.2;1.4;968;3.09917355371901;-0.6062176;1.15;-0.5545583;1.114573;0.4499513;2.036231;0.5398646;2.038008;
637946009216388759;1043.966;13;4;3;0.2;1.4;1399;2.14438884917798;0.6893654;1.621554;0.662677;1.62937;-0.6062176;1.15;-0.5545583;1.114573;
637946009227381852;1045.066;13;4;3;0.2;1.4;1100;2.72727272727273;-0.6893655;1.621553;-0.6674619;1.589835;0.6893654;1.621554;0.662677;1.62937;
637946009246377192;1046.965;13;4;3;0.2;1.4;1899;1.57977883096367;0.6062179;1.15;0.5464833;1.190955;-0.6893655;1.621553;-0.6674619;1.589835;
637946009258370563;1048.165;13;4;3;0.2;1.4;1199;2.50208507089241;-0.4499517;2.036231;-0.4558016;2.036399;0.6062179;1.15;0.5464833;1.190955;
637946009272364495;1049.564;13;4;3;0.2;1.4;1399;2.14438884917798;0.2394144;0.8422153;0.212386;0.8981477;-0.4499517;2.036231;-0.4558016;2.036399;
637946009300352364;1052.363;13;4;3.5;0.2;2;1499;2.33488992661775;-0.3420197;0.5603072;-0.340324;0.6599842;0;2.5;0.01695424;2.40177;
637946009314346296;1053.762;13;4;3.5;0.2;2;1400;2.5;0.6427875;2.266045;0.6000307;2.242062;-0.3420197;0.5603072;-0.340324;0.6599842;
637946009330340791;1055.362;13;4;3.5;0.2;2;1599;2.18886804252658;-0.8660251;0.9999995;-0.7878953;0.9995861;0.6427875;2.266045;0.6000307;2.242062;
637946009340343604;1056.361;13;4;3.5;0.2;2;999;3.5035035035035;0.9848077;1.673648;0.9791344;1.715036;-0.8660251;0.9999995;-0.7878953;0.9995861;
637946009354327536;1057.76;13;4;3.5;0.2;2;1399;2.50178699070765;-0.9848078;1.673648;-0.9092795;1.682192;0.9848077;1.673648;0.9791344;1.715036;
637946009371432344;1059.47;13;4;3.5;0.2;2;1710;2.04678362573099;0.8660256;1;0.7906643;1.060119;-0.9848078;1.673648;-0.9092795;1.682192;
637946009388427124;1061.17;13;4;3.5;0.2;2;1699;2.06003531489111;-0.6427882;2.266044;-0.6405473;2.167166;0.8660256;1;0.7906643;1.060119;
637946009425410771;1064.868;13;4;3.5;0.2;2;3698;0.946457544618713;0.3420205;0.5603075;0.3382308;0.6500645;-0.6427882;2.266044;-0.6405473;2.167166;
637946009448408876;1067.167;13;4;2.5;0.3;1.4;1200;2.08333333333333;-0.2394138;0.8422151;-0.1923466;0.8860415;0;2.2;0.05304792;2.138654;
637946009458397841;1068.167;13;4;2.5;0.3;1.4;999;2.5025025025025;0.4499513;2.036231;0.4462184;1.966815;-0.2394138;0.8422151;-0.1923466;0.8860415;
637946009470396924;1069.366;13;4;2.5;0.3;1.4;1199;2.08507089241034;-0.6062176;1.15;-0.5975243;1.036437;0.4499513;2.036231;0.4462184;1.966815;
637946009491384517;1071.465;13;4;2.5;0.3;1.4;2099;1.19104335397808;0.6893654;1.621554;0.648046;1.616027;-0.6062176;1.15;-0.5975243;1.036437;
637946009502381009;1072.564;13;4;2.5;0.3;1.4;1099;2.27479526842584;-0.6893655;1.621553;-0.7745117;1.657152;0.6893654;1.621554;0.648046;1.616027;
637946009513494135;1073.675;13;4;2.5;0.3;1.4;1111;2.25022502250225;0.6062179;1.15;0.6925425;1.234996;-0.6893655;1.621553;-0.7745117;1.657152;
637946009526487785;1074.975;13;4;2.5;0.3;1.4;1300;1.92307692307692;-0.4499517;2.036231;-0.3306642;1.950648;0.6062179;1.15;0.6925425;1.234996;
637946009537480877;1076.074;13;4;2.5;0.3;1.4;1099;2.27479526842584;0.2394144;0.8422153;0.2325267;0.9329925;-0.4499517;2.036231;-0.3306642;1.950648;
637946009558476779;1078.173;13;4;1.5;1.1;2;1100;1.36363636363636;-0.3420197;0.5603072;-0.1588009;0.9696096;0;2.5;0.1235712;2.184584;
637946009569459864;1079.272;13;4;1.5;1.1;2;1099;1.36487716105551;0.6427875;2.266045;0.5075081;1.922766;-0.3420197;0.5603072;-0.1588009;0.9696096;
637946009578462398;1080.172;13;4;1.5;1.1;2;900;1.66666666666667;-0.8660251;0.9999995;-0.5549288;1.320199;0.6427875;2.266045;0.5075081;1.922766;
637946009585464365;1080.872;13;4;1.5;1.1;2;700;2.14285714285714;0.9848077;1.673648;0.5296577;1.58761;-0.8660251;0.9999995;-0.5549288;1.320199;
637946009592456329;1081.571;13;4;1.5;1.1;2;700;2.14285714285714;-0.9848078;1.673648;-0.4677116;1.651937;0.9848077;1.673648;0.5296577;1.58761;
637946009600448580;1082.371;13;4;1.5;1.1;2;800;1.875;0.8660256;1;0.5894812;1.285125;-0.9848078;1.673648;-0.4677116;1.651937;
637946009613452234;1083.67;13;4;1.5;1.1;2;1299;1.15473441108545;-0.6427882;2.266044;-0.4404585;1.758031;0.8660256;1;0.5894812;1.285125;
637946009626445883;1084.97;13;4;1.5;1.1;2;1300;1.15384615384615;0.3420205;0.5603075;0.2364854;0.9982662;-0.6427882;2.266044;-0.4404585;1.758031;
637946009666537153;1088.979;13;4;4;0.1;1.4;2709;1.4765596160945;-0.2394138;0.8422151;-0.2290037;0.8457785;0;2.2;0.00891764;2.208824;
637946009686532775;1090.978;13;4;4;0.1;1.4;1999;2.00100050025012;0.4499513;2.036231;0.4248593;2.007157;-0.2394138;0.8422151;-0.2290037;0.8457785;
637946009715520922;1093.877;13;4;4;0.1;1.4;2899;1.37978613314936;-0.6062176;1.15;-0.5656716;1.168483;0.4499513;2.036231;0.4248593;2.007157;
637946009747509917;1097.075;13;4;4;0.1;1.4;3199;1.25039074710847;0.6893654;1.621554;0.668478;1.578647;-0.6062176;1.15;-0.5656716;1.168483;
637946009763494410;1098.674;13;4;4;0.1;1.4;1599;2.50156347717323;-0.6893655;1.621553;-0.6507269;1.610999;0.6893654;1.621554;0.668478;1.578647;
637946009776493133;1099.974;13;4;4;0.1;1.4;1299;3.07929176289453;0.6062179;1.15;0.5678576;1.176978;-0.6893655;1.621553;-0.6507269;1.610999;
637946009796484537;1101.973;13;4;4;0.1;1.4;1999;2.00100050025012;-0.4499517;2.036231;-0.4614074;2.003423;0.6062179;1.15;0.5678576;1.176978;
637946009808477908;1103.172;13;4;4;0.1;1.4;1199;3.33611342785655;0.2394144;0.8422153;0.2162133;0.8841631;-0.4499517;2.036231;-0.4614074;2.003423;
637946009853571221;1107.682;13;4;2;0.6;1.8;3409;0.586682311528307;-0.3078177;0.6542765;-0.3004909;0.9238741;0;2.4;0.01238204;2.215127;
637946009869562177;1109.281;13;4;2;0.6;1.8;1599;1.25078173858662;0.5785087;2.18944;0.4279587;1.991611;-0.3078177;0.6542765;-0.3004909;0.9238741;
637946009880562457;1110.38;13;4;2;0.6;1.8;1099;1.81983621474067;-0.7794226;1.05;-0.6633402;1.098768;0.5785087;2.18944;0.4279587;1.991611;
637946009896561854;1111.98;13;4;2;0.6;1.8;1599;1.25078173858662;0.8863269;1.656283;0.6763536;1.629926;-0.7794226;1.05;-0.6633402;1.098768;
637946009907554941;1113.079;13;4;2;0.6;1.8;1099;1.81983621474067;-0.8863271;1.656283;-0.7884753;1.558858;0.8863269;1.656283;0.6763536;1.629926;
637946009919548314;1114.279;13;4;2;0.6;1.8;1200;1.66666666666667;0.779423;1.05;0.6893406;1.240185;-0.8863271;1.656283;-0.7884753;1.558858;
637946009930541397;1115.378;13;4;2;0.6;1.8;1099;1.81983621474067;-0.5785094;2.18944;-0.7712792;2.075077;0.779423;1.05;0.6893406;1.240185;
637946009940534215;1116.377;13;4;2;0.6;1.8;999;2.002002002002;0.3078185;0.6542768;0.3476425;0.8473798;-0.5785094;2.18944;-0.7712792;2.075077;
637946011038994185;1226.216;13;5;2.5;0.3;1.4;1611;1.55183116076971;-0.2394138;0.8422151;-0.2276286;0.9216907;0;2.2;-0.02976711;2.199565;
637946011056978657;1228.015;13;5;2.5;0.3;1.4;1799;1.38966092273485;0.4499513;2.036231;0.4027767;1.953565;-0.2394138;0.8422151;-0.2276286;0.9216907;
637946011071972385;1229.514;13;5;2.5;0.3;1.4;1499;1.66777851901268;-0.6062176;1.15;-0.5431527;1.177038;0.4499513;2.036231;0.4027767;1.953565;
637946011084965618;1230.813;13;5;2.5;0.3;1.4;1299;1.92455735180908;0.6893654;1.621554;0.6519385;1.62946;-0.6062176;1.15;-0.5431527;1.177038;
637946011096968603;1232.012;13;5;2.5;0.3;1.4;1199;2.08507089241034;-0.6893655;1.621553;-0.6953003;1.615246;0.6893654;1.621554;0.6519385;1.62946;
637946011110952081;1233.412;13;5;2.5;0.3;1.4;1400;1.78571428571429;0.6062179;1.15;0.5984218;1.204305;-0.6893655;1.621553;-0.6953003;1.615246;
637946011126966067;1235.011;13;5;2.5;0.3;1.4;1599;1.56347717323327;-0.4499517;2.036231;-0.4203771;1.963492;0.6062179;1.15;0.5984218;1.204305;
637946011143940282;1236.711;13;5;2.5;0.3;1.4;1699;1.47145379635079;0.2394144;0.8422153;0.1771396;0.9308608;-0.4499517;2.036231;-0.4203771;1.963492;
637946011203024984;1242.619;13;5;3;0.2;1.4;1499;2.00133422281521;-0.2394138;0.8422151;-0.2104673;0.9160533;0;2.2;-0.003312804;2.180417;
637946011219018959;1244.218;13;5;3;0.2;1.4;1599;1.87617260787993;0.4499513;2.036231;0.4191307;2.002943;-0.2394138;0.8422151;-0.2104673;0.9160533;
637946011234012685;1245.718;13;5;3;0.2;1.4;1499;2.00133422281521;-0.6062176;1.15;-0.5809889;1.213391;0.4499513;2.036231;0.4191307;2.002943;
637946011253117437;1247.628;13;5;3;0.2;1.4;1910;1.57068062827225;0.6893654;1.621554;0.6634209;1.65088;-0.6062176;1.15;-0.5809889;1.213391;
637946011266108420;1248.927;13;5;3;0.2;1.4;1299;2.3094688221709;-0.6893655;1.621553;-0.6639173;1.643652;0.6893654;1.621554;0.6634209;1.65088;
637946011280037322;1250.32;13;5;3;0.2;1.4;1393;2.15362526920316;0.6062179;1.15;0.5604107;1.238726;-0.6893655;1.621553;-0.6639173;1.643652;
637946011303093057;1252.625;13;5;3;0.2;1.4;2306;1.3009540329575;-0.4499517;2.036231;-0.3732316;1.975066;0.6062179;1.15;0.5604107;1.238726;
637946011321089699;1254.425;13;5;3;0.2;1.4;1800;1.66666666666667;0.2394144;0.8422153;0.2609982;0.9014925;-0.4499517;2.036231;-0.3732316;1.975066;
637946011362173297;1258.533;13;5;3.5;0.2;2;2110;1.65876777251185;-0.3420197;0.5603072;-0.3037166;0.6482344;0;2.5;-0.05351083;2.478823;
637946011393162545;1261.632;13;5;3.5;0.2;2;3099;1.12939657954179;0.6427875;2.266045;0.6116453;2.27626;-0.3420197;0.5603072;-0.3037166;0.6482344;
637946011406156401;1262.932;13;5;3.5;0.2;2;1299;2.69438029253272;-0.8660251;0.9999995;-0.8297065;1.063694;0.6427875;2.266045;0.6116453;2.27626;
637946011421150128;1264.431;13;5;3.5;0.2;2;1499;2.33488992661775;0.9848077;1.673648;1.053314;1.684396;-0.8660251;0.9999995;-0.8297065;1.063694;
637946011440144851;1266.33;13;5;3.5;0.2;2;1899;1.84307530279094;-0.9848078;1.673648;-0.9428533;1.65283;0.9848077;1.673648;1.053314;1.684396;
637946011459139578;1268.229;13;5;3.5;0.2;2;1899;1.84307530279094;0.8660256;1;0.8500477;0.9950465;-0.9848078;1.673648;-0.9428533;1.65283;
637946011472132807;1269.529;13;5;3.5;0.2;2;1299;2.69438029253272;-0.6427882;2.266044;-0.6123284;2.20232;0.8660256;1;0.8500477;0.9950465;
637946011490237312;1271.339;13;5;3.5;0.2;2;1810;1.93370165745856;0.3420205;0.5603075;0.4222088;0.5848194;-0.6427882;2.266044;-0.6123284;2.20232;
637946011513223029;1273.638;13;5;1.5;1.1;2;1100;1.36363636363636;-0.3420197;0.5603072;-0.3529724;0.9501028;0;2.5;0.01782563;2.29308;
637946011529217006;1275.237;13;5;1.5;1.1;2;1599;0.938086303939963;0.6427875;2.266045;0.4580916;1.912453;-0.3420197;0.5603072;-0.3529724;0.9501028;
637946011539209490;1276.237;13;5;1.5;1.1;2;999;1.5015015015015;-0.8660251;0.9999995;-0.6791928;1.332581;0.6427875;2.266045;0.4580916;1.912453;
637946011548211730;1277.136;13;5;1.5;1.1;2;900;1.66666666666667;0.9848077;1.673648;0.805454;1.646801;-0.8660251;0.9999995;-0.6791928;1.332581;
637946011558204220;1278.136;13;5;1.5;1.1;2;1000;1.5;-0.9848078;1.673648;-0.7212642;1.684122;0.9848077;1.673648;0.805454;1.646801;
637946011568196701;1279.135;13;5;1.5;1.1;2;999;1.5015015015015;0.8660256;1;0.5757012;1.368058;-0.9848078;1.673648;-0.7212642;1.684122;
637946011578199188;1280.135;13;5;1.5;1.1;2;1000;1.5;-0.6427882;2.266044;-0.5410044;2.018344;0.8660256;1;0.5757012;1.368058;
637946011587191423;1281.034;13;5;1.5;1.1;2;900;1.66666666666667;0.3420205;0.5603075;0.3520198;0.9318732;-0.6427882;2.266044;-0.5410044;2.018344;
637946011617178882;1284.033;13;5;4;0.1;1.4;1599;2.50156347717323;-0.2394138;0.8422151;-0.2111641;0.8608165;0;2.2;0.005691492;2.17756;
637946011637273878;1286.043;13;5;4;0.1;1.4;2010;1.99004975124378;0.4499513;2.036231;0.4244132;2.008429;-0.2394138;0.8422151;-0.2111641;0.8608165;
637946011666271092;1288.942;13;5;4;0.1;1.4;2899;1.37978613314936;-0.6062176;1.15;-0.5999468;1.174912;0.4499513;2.036231;0.4244132;2.008429;
637946011678254072;1290.141;13;5;4;0.1;1.4;1199;3.33611342785655;0.6893654;1.621554;0.6583141;1.615357;-0.6062176;1.15;-0.5999468;1.174912;
637946011689251860;1291.241;13;5;4;0.1;1.4;1100;3.63636363636364;-0.6893655;1.621553;-0.6848825;1.592916;0.6893654;1.621554;0.6583141;1.615357;
637946011717246424;1294.039;13;5;4;0.1;1.4;2799;1.4290818149339;0.6062179;1.15;0.5851194;1.177442;-0.6893655;1.621553;-0.6848825;1.592916;
637946011729239407;1295.239;13;5;4;0.1;1.4;1199;3.33611342785655;-0.4499517;2.036231;-0.4313967;2.00363;0.6062179;1.15;0.5851194;1.177442;
637946011742237234;1296.538;13;5;4;0.1;1.4;1299;3.07929176289453;0.2394144;0.8422153;0.2275362;0.8590734;-0.4499517;2.036231;-0.4313967;2.00363;
637946011785319346;1300.847;13;5;4.5;0.1;2.2;1499;3.00200133422282;-0.3762217;0.4663379;-0.375169;0.5027601;0;2.6;-0.01099759;2.59813;
637946011800323076;1302.347;13;5;4.5;0.1;2.2;1500;3;0.7070663;2.342649;0.6687096;2.325098;-0.3762217;0.4663379;-0.375169;0.5027601;
637946011825309292;1304.845;13;5;4.5;0.1;2.2;2499;1.80072028811525;-0.9526277;0.9499994;-0.9057965;0.9405917;0.7070663;2.342649;0.6687096;2.325098;
637946011836302024;1305.945;13;5;4.5;0.1;2.2;1099;4.09463148316652;1.083289;1.691013;1.114373;1.707404;-0.9526277;0.9499994;-0.9057965;0.9405917;
637946011846684607;1306.991;13;5;4.5;0.1;2.2;1046;4.30210325047801;-1.083289;1.691012;-1.097369;1.654417;1.083289;1.691013;1.114373;1.707404;
637946011876291972;1309.944;13;5;4.5;0.1;2.2;2953;1.52387402641382;0.9526281;0.9500003;0.9214011;0.9868883;-1.083289;1.691012;-1.097369;1.654417;
637946011913681267;1313.69;13;5;4.5;0.1;2.2;3747;1.20096076861489;-0.7070671;2.342648;-0.678271;2.303623;0.9526281;0.9500003;0.9214011;0.9868883;
637946011924383929;1314.752;13;5;4.5;0.1;2.2;1062;4.23728813559322;0.3762226;0.4663382;0.3924574;0.4744749;-0.7070671;2.342648;-0.678271;2.303623;
637946011949370146;1317.251;13;5;2;0.6;1.8;1299;1.53964588144727;-0.3078177;0.6542765;-0.2635426;0.8541996;0;2.4;0.06421557;2.318089;
637946011959362631;1318.25;13;5;2;0.6;1.8;1000;2;0.5785087;2.18944;0.4943061;2.166596;-0.3078177;0.6542765;-0.2635426;0.8541996;
637946011971355612;1319.45;13;5;2;0.6;1.8;1199;1.66805671392827;-0.7794226;1.05;-0.7348305;1.190563;0.5785087;2.18944;0.4943061;2.166596;
637946011982358350;1320.55;13;5;2;0.6;1.8;1100;1.81818181818182;0.8863269;1.656283;0.7640965;1.681189;-0.7794226;1.05;-0.7348305;1.190563;
637946011992350834;1321.549;13;5;2;0.6;1.8;999;2.002002002002;-0.8863271;1.656283;-0.7885827;1.725983;0.8863269;1.656283;0.7640965;1.681189;
637946012001343069;1322.448;13;5;2;0.6;1.8;899;2.22469410456062;0.779423;1.05;0.755771;1.205129;-0.8863271;1.656283;-0.7885827;1.725983;
637946012012335812;1323.548;13;5;2;0.6;1.8;1100;1.81818181818182;-0.5785094;2.18944;-0.6075488;2.029366;0.779423;1.05;0.755771;1.205129;
637946012021338044;1324.448;13;5;2;0.6;1.8;900;2.22222222222222;0.3078185;0.6542768;0.2878918;0.8286245;-0.5785094;2.18944;-0.6075488;2.029366;
637946012699700024;1392.283;13;6;4;0.1;1.4;1260;3.17460317460317;-0.2394138;0.8422151;-0.2292958;0.8899815;0;2.2;-0.01955153;2.157027;
637946012718694750;1394.182;13;6;4;0.1;1.4;1899;2.10637177461822;0.4499513;2.036231;0.4667524;2.026359;-0.2394138;0.8422151;-0.2292958;0.8899815;
637946012731687982;1395.481;13;6;4;0.1;1.4;1299;3.07929176289453;-0.6062176;1.15;-0.599768;1.174772;0.4499513;2.036231;0.4667524;2.026359;
637946012742680721;1396.581;13;6;4;0.1;1.4;1099;3.63967242948135;0.6893654;1.621554;0.6944728;1.623769;-0.6062176;1.15;-0.599768;1.174772;
637946012753053295;1397.626;13;6;4;0.1;1.4;1045;3.82775119617225;-0.6893655;1.621553;-0.6624588;1.582528;0.6893654;1.621554;0.6944728;1.623769;
637946012775668921;1399.879;13;6;4;0.1;1.4;2253;1.77541056369285;0.6062179;1.15;0.6138086;1.165084;-0.6893655;1.621553;-0.6624588;1.582528;
637946012804748235;1402.789;13;6;4;0.1;1.4;2910;1.3745704467354;-0.4499517;2.036231;-0.4210762;2.039264;0.6062179;1.15;0.6138086;1.165084;
637946012830734696;1405.388;13;6;4;0.1;1.4;2599;1.5390534821085;0.2394144;0.8422153;0.2317527;0.8755963;-0.4499517;2.036231;-0.4210762;2.039264;
637946012851722821;1407.486;13;6;2.5;0.3;1.4;1000;2.5;-0.2394138;0.8422151;-0.1557039;0.8942795;0;2.2;0.04132807;2.126631;
637946012861731890;1408.486;13;6;2.5;0.3;1.4;1000;2.5;0.4499513;2.036231;0.4416132;2.076834;-0.2394138;0.8422151;-0.1557039;0.8942795;
637946012870722634;1409.386;13;6;2.5;0.3;1.4;899;2.78086763070078;-0.6062176;1.15;-0.5796855;1.118547;0.4499513;2.036231;0.4416132;2.076834;
637946012881717293;1410.485;13;6;2.5;0.3;1.4;1100;2.27272727272727;0.6893654;1.621554;0.7213709;1.607589;-0.6062176;1.15;-0.5796855;1.118547;
637946012890709528;1411.385;13;6;2.5;0.3;1.4;899;2.78086763070078;-0.6893655;1.621553;-0.7128522;1.63251;0.6893654;1.621554;0.7213709;1.607589;
637946012901712262;1412.484;13;6;2.5;0.3;1.4;1100;2.27272727272727;0.6062179;1.15;0.6080413;1.230115;-0.6893655;1.621553;-0.7128522;1.63251;
637946012910704500;1413.384;13;6;2.5;0.3;1.4;900;2.77777777777778;-0.4499517;2.036231;-0.5636331;2.071604;0.6062179;1.15;0.6080413;1.230115;
637946012926808504;1414.994;13;6;2.5;0.3;1.4;1610;1.5527950310559;0.2394144;0.8422153;0.2821273;0.8808514;-0.4499517;2.036231;-0.5636331;2.071604;
637946012978781433;1420.192;13;6;4.5;0.1;2.2;2099;2.14387803716055;-0.3762217;0.4663379;-0.4134137;0.4759115;0;2.6;-0.02441561;2.557747;
637946012990774413;1421.391;13;6;4.5;0.1;2.2;1200;3.75;0.7070663;2.342649;0.6792879;2.360505;-0.3762217;0.4663379;-0.4134137;0.4759115;
637946013011769636;1423.49;13;6;4.5;0.1;2.2;2099;2.14387803716055;-0.9526277;0.9499994;-0.9578018;0.9664702;0.7070663;2.342649;0.6792879;2.360505;
637946013035755599;1425.889;13;6;4.5;0.1;2.2;2399;1.87578157565652;1.083289;1.691013;1.062224;1.721804;-0.9526277;0.9499994;-0.9578018;0.9664702;
637946013047038411;1427.025;13;6;4.5;0.1;2.2;1136;3.9612676056338;-1.083289;1.691012;-1.033575;1.6896;1.083289;1.691013;1.062224;1.721804;
637946013062752318;1428.588;13;6;4.5;0.1;2.2;1563;2.87907869481766;0.9526281;0.9500003;0.9218583;0.9504993;-1.083289;1.691012;-1.033575;1.6896;
637946013085177895;1430.838;13;6;4.5;0.1;2.2;2250;2;-0.7070671;2.342648;-0.6577036;2.336503;0.9526281;0.9500003;0.9218583;0.9504993;
637946013103842536;1432.697;13;6;4.5;0.1;2.2;1859;2.42065626681011;0.3762226;0.4663382;0.3841424;0.4683733;-0.7070671;2.342648;-0.6577036;2.336503;
637946013125838008;1434.896;13;6;3.5;0.2;2;1200;2.91666666666667;-0.3420197;0.5603072;-0.3140468;0.612535;0;2.5;0.02470812;2.45099;
637946013143822478;1436.695;13;6;3.5;0.2;2;1799;1.94552529182879;0.6427875;2.266045;0.6060362;2.234158;-0.3420197;0.5603072;-0.3140468;0.612535;
637946013157815960;1438.095;13;6;3.5;0.2;2;1399;2.50178699070765;-0.8660251;0.9999995;-0.8403951;0.972227;0.6427875;2.266045;0.6060362;2.234158;
637946013170811178;1439.394;13;6;3.5;0.2;2;1299;2.69438029253272;0.9848077;1.673648;0.9026646;1.695985;-0.8660251;0.9999995;-0.8403951;0.972227;
637946013183800068;1440.693;13;6;3.5;0.2;2;1299;2.69438029253272;-0.9848078;1.673648;-0.9427727;1.657279;0.9848077;1.673648;0.9026646;1.695985;
637946013195803052;1441.893;13;6;3.5;0.2;2;1199;2.91909924937448;0.8660256;1;0.7953297;1.043026;-0.9848078;1.673648;-0.9427727;1.657279;
637946013209796535;1443.292;13;6;3.5;0.2;2;1400;2.5;-0.6427882;2.266044;-0.6307785;2.206609;0.8660256;1;0.7953297;1.043026;
637946013221789522;1444.492;13;6;3.5;0.2;2;1199;2.91909924937448;0.3420205;0.5603075;0.3306849;0.623667;-0.6427882;2.266044;-0.6307785;2.206609;
637946013238892022;1446.202;13;6;2;0.6;1.8;911;2.1953896816685;-0.3078177;0.6542765;-0.2745676;0.8330252;0;2.4;0.09601459;2.292133;
637946013246884006;1447.001;13;6;2;0.6;1.8;799;2.50312891113892;0.5785087;2.18944;0.6195908;2.040514;-0.3078177;0.6542765;-0.2745676;0.8330252;
637946013256886496;1448.001;13;6;2;0.6;1.8;1000;2;-0.7794226;1.05;-0.6434214;1.065676;0.5785087;2.18944;0.6195908;2.040514;
637946013264878482;1448.801;13;6;2;0.6;1.8;800;2.5;0.8863269;1.656283;0.7609685;1.750282;-0.7794226;1.05;-0.6434214;1.065676;
637946013273870718;1449.7;13;6;2;0.6;1.8;899;2.22469410456062;-0.8863271;1.656283;-0.9371845;1.611693;0.8863269;1.656283;0.7609685;1.750282;
637946013281872710;1450.5;13;6;2;0.6;1.8;800;2.5;0.779423;1.05;0.7632431;1.09543;-0.8863271;1.656283;-0.9371845;1.611693;
637946013289874699;1451.3;13;6;2;0.6;1.8;800;2.5;-0.5785094;2.18944;-0.5521091;2.211302;0.779423;1.05;0.7632431;1.09543;
637946013298866937;1452.199;13;6;2;0.6;1.8;900;2.22222222222222;0.3078185;0.6542768;0.1751682;0.7423826;-0.5785094;2.18944;-0.5521091;2.211302;
637946013313860667;1453.698;13;6;1.5;1.1;2;800;1.875;-0.3420197;0.5603072;-0.186237;0.989099;0;2.5;0.1048501;2.163836;
637946013320852404;1454.398;13;6;1.5;1.1;2;700;2.14285714285714;0.6427875;2.266045;0.4167419;1.888153;-0.3420197;0.5603072;-0.186237;0.989099;
637946013328854396;1455.198;13;6;1.5;1.1;2;800;1.875;-0.8660251;0.9999995;-0.7210784;1.198655;0.6427875;2.266045;0.4167419;1.888153;
637946013335075942;1455.827;13;6;1.5;1.1;2;630;2.38095238095238;0.9848077;1.673648;0.4592121;1.558651;-0.8660251;0.9999995;-0.7210784;1.198655;
637946013349839610;1457.297;13;6;1.5;1.1;2;1470;1.02040816326531;-0.9848078;1.673648;-0.5548266;1.634808;0.9848077;1.673648;0.4592121;1.558651;
637946013358841853;1458.196;13;6;1.5;1.1;2;900;1.66666666666667;0.8660256;1;0.8386354;1.219245;-0.9848078;1.673648;-0.5548266;1.634808;
637946013372835331;1459.596;13;6;1.5;1.1;2;1399;1.07219442458899;-0.6427882;2.266044;-0.3271784;1.851731;0.8660256;1;0.8386354;1.219245;
637946013382827820;1460.595;13;6;1.5;1.1;2;1000;1.5;0.3420205;0.5603075;0.365819;0.9962964;-0.6427882;2.266044;-0.3271784;1.851731;
637946013408924309;1463.205;13;6;3;0.2;1.4;1299;2.3094688221709;-0.2394138;0.8422151;-0.1999035;0.9221263;0;2.2;0.007838593;2.277905;
637946013424918286;1464.804;13;6;3;0.2;1.4;1599;1.87617260787993;0.4499513;2.036231;0.4048614;2.014655;-0.2394138;0.8422151;-0.1999035;0.9221263;
637946013449904502;1467.303;13;6;3;0.2;1.4;2499;1.20048019207683;-0.6062176;1.15;-0.6276215;1.233195;0.4499513;2.036231;0.4048614;2.014655;
637946013458906738;1468.203;13;6;3;0.2;1.4;900;3.33333333333333;0.6893654;1.621554;0.6305786;1.62264;-0.6062176;1.15;-0.6276215;1.233195;
637946013472900218;1469.602;13;6;3;0.2;1.4;1399;2.14438884917798;-0.6893655;1.621553;-0.6713456;1.604858;0.6893654;1.621554;0.6305786;1.62264;
637946013488894199;1471.201;13;6;3;0.2;1.4;1599;1.87617260787993;0.6062179;1.15;0.5427444;1.219553;-0.6893655;1.621553;-0.6713456;1.604858;
637946013501887428;1472.501;13;6;3;0.2;1.4;1299;2.3094688221709;-0.4499517;2.036231;-0.4563049;2.009268;0.6062179;1.15;0.5427444;1.219553;
637946013513875475;1473.7;13;6;3;0.2;1.4;1199;2.50208507089241;0.2394144;0.8422153;0.2957889;0.8543311;-0.4499517;2.036231;-0.4563049;2.009268;
637946014088210087;1531.129;13;7;3.5;0.2;2;2610;1.34099616858238;-0.3420197;0.5603072;-0.3690516;0.5757837;0;2.5;-0.01297908;2.49171;
637946014101193318;1532.428;13;7;3.5;0.2;2;1299;2.69438029253272;0.6427875;2.266045;0.6084141;2.175177;-0.3420197;0.5603072;-0.3690516;0.5757837;
637946014112186053;1533.528;13;7;3.5;0.2;2;1100;3.18181818181818;-0.8660251;0.9999995;-0.8125542;1.01856;0.6427875;2.266045;0.6084141;2.175177;
637946014122198540;1534.528;13;7;3.5;0.2;2;1000;3.5;0.9848077;1.673648;1.029347;1.668247;-0.8660251;0.9999995;-0.8125542;1.01856;
637946014135181769;1535.827;13;7;3.5;0.2;2;1299;2.69438029253272;-0.9848078;1.673648;-0.9497191;1.597532;0.9848077;1.673648;1.029347;1.668247;
637946014164168978;1538.726;13;7;3.5;0.2;2;2899;1.20731286650569;0.8660256;1;0.8518757;1.055241;-0.9848078;1.673648;-0.9497191;1.597532;
637946014177162210;1540.025;13;7;3.5;0.2;2;1299;2.69438029253272;-0.6427882;2.266044;-0.6031494;2.24672;0.8660256;1;0.8518757;1.055241;
637946014189155192;1541.225;13;7;3.5;0.2;2;1200;2.91666666666667;0.3420205;0.5603075;0.3052236;0.643222;-0.6427882;2.266044;-0.6031494;2.24672;
637946014208149917;1543.124;13;7;1.5;1.1;2;900;1.66666666666667;-0.3420197;0.5603072;-0.2657217;0.8604615;0;2.5;0.03378093;2.24344;
637946014218152404;1544.124;13;7;1.5;1.1;2;1000;1.5;0.6427875;2.266045;0.5174731;2.022603;-0.3420197;0.5603072;-0.2657217;0.8604615;
637946014227244670;1545.034;13;7;1.5;1.1;2;910;1.64835164835165;-0.8660251;0.9999995;-0.581126;1.126698;0.6427875;2.266045;0.5174731;2.022603;
637946014235246656;1545.834;13;7;1.5;1.1;2;800;1.875;0.9848077;1.673648;0.6410928;1.593349;-0.8660251;0.9999995;-0.581126;1.126698;
637946014243248643;1546.634;13;7;1.5;1.1;2;800;1.875;-0.9848078;1.673648;-0.6402322;1.664253;0.9848077;1.673648;0.6410928;1.593349;
637946014252240885;1547.533;13;7;1.5;1.1;2;899;1.66852057842047;0.8660256;1;0.7254509;1.291027;-0.9848078;1.673648;-0.6402322;1.664253;
637946014261238849;1548.433;13;7;1.5;1.1;2;900;1.66666666666667;-0.6427882;2.266044;-0.4593385;1.90507;0.8660256;1;0.7254509;1.291027;
637946014270226437;1549.332;13;7;1.5;1.1;2;899;1.66852057842047;0.3420205;0.5603075;0.4041552;0.993255;-0.6427882;2.266044;-0.4593385;1.90507;
637946014304534971;1552.769;13;7;4.5;0.1;2.2;1938;2.32198142414861;-0.3762217;0.4663379;-0.391749;0.5138677;0;2.6;-0.009253079;2.556571;
637946014321213870;1554.43;13;7;4.5;0.1;2.2;1661;2.70921131848284;0.7070663;2.342649;0.6784093;2.335631;-0.3762217;0.4663379;-0.391749;0.5138677;
637946014339202493;1556.229;13;7;4.5;0.1;2.2;1799;2.50138966092273;-0.9526277;0.9499994;-0.9608188;0.9642273;0.7070663;2.342649;0.6784093;2.335631;
637946014353195970;1557.628;13;7;4.5;0.1;2.2;1400;3.21428571428571;1.083289;1.691013;1.095541;1.67949;-0.9526277;0.9499994;-0.9608188;0.9642273;
637946014367299479;1559.039;13;7;4.5;0.1;2.2;1411;3.18922749822821;-1.083289;1.691012;-1.070583;1.667402;1.083289;1.691013;1.095541;1.67949;
637946014378292213;1560.138;13;7;4.5;0.1;2.2;1099;4.09463148316652;0.9526281;0.9500003;0.9101089;0.9317555;-1.083289;1.691012;-1.070583;1.667402;
637946014391285446;1561.437;13;7;4.5;0.1;2.2;1299;3.46420323325635;-0.7070671;2.342648;-0.6653436;2.315383;0.9526281;0.9500003;0.9101089;0.9317555;
637946014403288429;1562.637;13;7;4.5;0.1;2.2;1200;3.75;0.3762226;0.4663382;0.3590077;0.4906285;-0.7070671;2.342648;-0.6653436;2.315383;
637946014443268373;1566.635;13;7;4;0.1;1.4;2599;1.5390534821085;-0.2394138;0.8422151;-0.2204786;0.8876972;0;2.2;-0.001086773;2.169008;
637946014469254839;1569.234;13;7;4;0.1;1.4;2599;1.5390534821085;0.4499513;2.036231;0.4476599;2.046697;-0.2394138;0.8422151;-0.2204786;0.8876972;
637946014499242295;1572.233;13;7;4;0.1;1.4;2999;1.33377792597533;-0.6062176;1.15;-0.5908288;1.163585;0.4499513;2.036231;0.4476599;2.046697;
637946014512245531;1573.532;13;7;4;0.1;1.4;1299;3.07929176289453;0.6893654;1.621554;0.7190667;1.641679;-0.6062176;1.15;-0.5908288;1.163585;
637946014525658858;1574.881;13;7;4;0.1;1.4;1349;2.96515937731653;-0.6893655;1.621553;-0.7315731;1.618629;0.6893654;1.621554;0.7190667;1.641679;
637946014537341771;1576.042;13;7;4;0.1;1.4;1161;3.44530577088717;0.6062179;1.15;0.6218611;1.146047;-0.6893655;1.621553;-0.7315731;1.618629;
637946014549564809;1577.272;13;7;4;0.1;1.4;1230;3.2520325203252;-0.4499517;2.036231;-0.4902081;2.013992;0.6062179;1.15;0.6218611;1.146047;
637946014564328484;1578.741;13;7;4;0.1;1.4;1469;2.72294077603812;0.2394144;0.8422153;0.2125296;0.8534051;-0.4499517;2.036231;-0.4902081;2.013992;
637946014584313453;1580.739;13;7;2;0.6;1.8;899;2.22469410456062;-0.3078177;0.6542765;-0.3529383;0.8409165;0;2.4;0.03023424;2.289908;
637946014592310488;1581.539;13;7;2;0.6;1.8;800;2.5;0.5785087;2.18944;0.5293844;2.064767;-0.3078177;0.6542765;-0.3529383;0.8409165;
637946014598551054;1582.17;13;7;2;0.6;1.8;631;3.16957210776545;-0.7794226;1.05;-0.5312944;1.217255;0.5785087;2.18944;0.5293844;2.064767;
637946014607307558;1583.039;13;7;2;0.6;1.8;869;2.30149597238205;0.8863269;1.656283;0.7683755;1.719904;-0.7794226;1.05;-0.5312944;1.217255;
637946014614304542;1583.738;13;7;2;0.6;1.8;699;2.86123032904149;-0.8863271;1.656283;-0.5893717;1.616211;0.8863269;1.656283;0.7683755;1.719904;
637946014621296283;1584.438;13;7;2;0.6;1.8;700;2.85714285714286;0.779423;1.05;0.6487385;1.235592;-0.8863271;1.656283;-0.5893717;1.616211;
637946014629298270;1585.237;13;7;2;0.6;1.8;800;2.5;-0.5785094;2.18944;-0.4114878;2.17668;0.779423;1.05;0.6487385;1.235592;
637946014650284410;1587.337;13;7;2;0.6;1.8;2099;0.952834683182468;0.3078185;0.6542768;0.2743841;0.9353988;-0.5785094;2.18944;-0.4114878;2.17668;
637946014671319140;1589.439;13;7;3;0.2;1.4;1004;2.98804780876494;-0.2394138;0.8422151;-0.2303691;0.8676888;0;2.2;0.01047329;2.144454;
637946014683386804;1590.646;13;7;3;0.2;1.4;1207;2.48550124275062;0.4499513;2.036231;0.3880239;2.028646;-0.2394138;0.8422151;-0.2303691;0.8676888;
637946014693379833;1591.645;13;7;3;0.2;1.4;999;3.003003003003;-0.6062176;1.15;-0.6151248;1.119197;0.4499513;2.036231;0.3880239;2.028646;
637946014703375858;1592.645;13;7;3;0.2;1.4;1000;3;0.6893654;1.621554;0.6727789;1.632522;-0.6062176;1.15;-0.6151248;1.119197;
637946014720363639;1594.344;13;7;3;0.2;1.4;1699;1.76574455562095;-0.6893655;1.621553;-0.6620843;1.58382;0.6893654;1.621554;0.6727789;1.632522;
637946014732356618;1595.544;13;7;3;0.2;1.4;1199;2.50208507089241;0.6062179;1.15;0.5272365;1.204895;-0.6893655;1.621553;-0.6620843;1.58382;
637946014756352596;1597.943;13;7;3;0.2;1.4;2399;1.25052105043768;-0.4499517;2.036231;-0.4663595;2.064906;0.6062179;1.15;0.5272365;1.204895;
637946014767345325;1599.042;13;7;3;0.2;1.4;1099;2.72975432211101;0.2394144;0.8422153;0.2123533;0.8970782;-0.4499517;2.036231;-0.4663595;2.064906;
637946014788340541;1601.141;13;7;2.5;0.3;1.4;1000;2.5;-0.2394138;0.8422151;-0.1777883;0.9365064;0;2.2;0.008666847;2.103274;
637946014799333279;1602.241;13;7;2.5;0.3;1.4;1099;2.27479526842584;0.4499513;2.036231;0.3714602;2.017829;-0.2394138;0.8422151;-0.1777883;0.9365064;
637946014809325760;1603.24;13;7;2.5;0.3;1.4;1000;2.5;-0.6062176;1.15;-0.5316558;1.145432;0.4499513;2.036231;0.3714602;2.017829;
637946014819438276;1604.251;13;7;2.5;0.3;1.4;1010;2.47524752475248;0.6893654;1.621554;0.7262613;1.656773;-0.6062176;1.15;-0.5316558;1.145432;
637946014828430515;1605.151;13;7;2.5;0.3;1.4;900;2.77777777777778;-0.6893655;1.621553;-0.6212645;1.643975;0.6893654;1.621554;0.7262613;1.656773;
637946014837422749;1606.05;13;7;2.5;0.3;1.4;900;2.77777777777778;0.6062179;1.15;0.6568097;1.189597;-0.6893655;1.621553;-0.6212645;1.643975;
637946014848425485;1607.149;13;7;2.5;0.3;1.4;1099;2.27479526842584;-0.4499517;2.036231;-0.3874857;2.050352;0.6062179;1.15;0.6568097;1.189597;
637946014875412201;1609.848;13;7;2.5;0.3;1.4;2699;0.926268988514265;0.2394144;0.8422153;0.2283333;0.9913224;-0.4499517;2.036231;-0.3874857;2.050352;
