637946028746601952;270.7841;14;0;2;0.6;1.8;2799;0.714540907466952;-0.3078177;0.6542765;-0.164916;0.8210299;0;2.4;0.05290615;2.345405;
637946028754593942;271.5835;14;0;2;0.6;1.8;799;2.50312891113892;0.5785087;2.18944;0.4561802;2.254437;-0.3078177;0.6542765;-0.164916;0.8210299;
637946028764586419;272.5833;14;0;2;0.6;1.8;1000;2;-0.7794226;1.05;-0.7060455;0.9815162;0.5785087;2.18944;0.4561802;2.254437;
637946028785691673;274.6931;14;0;2;0.6;1.8;2110;0.947867298578199;0.8863269;1.656283;0.6354576;1.610515;-0.7794226;1.05;-0.7060455;0.9815162;
637946028793683663;275.4929;14;0;2;0.6;1.8;800;2.5;-0.8863271;1.656283;-0.8618999;1.570476;0.8863269;1.656283;0.6354576;1.610515;
637946028856659320;281.7899;14;0;2;0.6;1.8;6297;0.317611561060823;0.779423;1.05;0.873648;1.138035;-0.8863271;1.656283;-0.8618999;1.570476;
637946028863651058;282.4896;14;0;2;0.6;1.8;700;2.85714285714286;-0.5785094;2.18944;-0.5654069;1.907135;0.779423;1.05;0.873648;1.138035;
637946028927736997;288.8979;14;0;2;0.6;1.8;6408;0.31210986267166;0.3078185;0.6542768;0.2978724;0.6687727;-0.5785094;2.18944;-0.5654069;1.907135;
637946028994713666;295.5949;14;0;3;0.2;1.4;3499;0.857387825092884;-0.2394138;0.8422151;-0.1932595;0.8782365;0;2.2;-0.02010722;2.194005;
637946029031688556;299.2928;14;0;3;0.2;1.4;3698;0.811249323958897;0.4499513;2.036231;0.4252742;2.036153;-0.2394138;0.8422151;-0.1932595;0.8782365;
637946029076667683;303.7907;14;0;3;0.2;1.4;4498;0.666963094708759;-0.6062176;1.15;-0.5715004;1.196027;0.4499513;2.036231;0.4252742;2.036153;
637946029083781388;304.5015;14;0;3;0.2;1.4;711;4.21940928270042;0.6893654;1.621554;0.725527;1.551142;-0.6062176;1.15;-0.5715004;1.196027;
637946029128759069;308.9998;14;0;3;0.2;1.4;4498;0.666963094708759;-0.6893655;1.621553;-0.683845;1.611124;0.6893654;1.621554;0.725527;1.551142;
637946029185733242;314.6969;14;0;3;0.2;1.4;5697;0.526592943654555;0.6062179;1.15;0.5713856;1.205943;-0.6893655;1.621553;-0.683845;1.611124;
637946029193725231;315.4965;14;0;3;0.2;1.4;800;3.75;-0.4499517;2.036231;-0.4727825;1.967357;0.6062179;1.15;0.5713856;1.205943;
637946029213830232;317.5069;14;0;3;0.2;1.4;2010;1.49253731343284;0.2394144;0.8422153;0.2587223;0.9386835;-0.4499517;2.036231;-0.4727825;1.967357;
637946029244817939;320.6053;14;0;1.5;1.1;2;2399;0.625260525218841;-0.3420197;0.5603072;-0.2043173;0.9794574;0;2.5;-0.04289458;2.231973;
637946029250819429;321.205;14;0;1.5;1.1;2;600;2.5;0.6427875;2.266045;0.4635461;1.945919;-0.3420197;0.5603072;-0.2043173;0.9794574;
637946029290799375;325.203;14;0;1.5;1.1;2;3998;0.375187593796898;-0.8660251;0.9999995;-0.7545362;1.277369;0.6427875;2.266045;0.4635461;1.945919;
637946029295790614;325.7028;14;0;1.5;1.1;2;500;3;0.9848077;1.673648;0.7776068;1.704279;-0.8660251;0.9999995;-0.7545362;1.277369;
637946029330889345;329.2122;14;0;1.5;1.1;2;3509;0.42747221430607;-0.9848078;1.673648;-0.7124987;1.823247;0.9848077;1.673648;0.7776068;1.704279;
637946029364877795;332.6109;14;0;1.5;1.1;2;3399;0.441306266548985;0.8660256;1;0.754092;1.287382;-0.9848078;1.673648;-0.7124987;1.823247;
637946029369879040;333.1104;14;0;1.5;1.1;2;500;3;-0.6427882;2.266044;-0.411593;2.079486;0.8660256;1;0.754092;1.287382;
637946029406969531;336.8199;14;0;1.5;1.1;2;3710;0.404312668463612;0.3420205;0.5603075;0.2884918;1.020088;-0.6427882;2.266044;-0.411593;2.079486;
637946029503929185;346.5155;14;0;4.5;0.1;2.2;5198;0.865717583686033;-0.3762217;0.4663379;-0.3713601;0.4988215;0;2.6;-0.01035937;2.582098;
637946029512921423;347.4151;14;0;4.5;0.1;2.2;900;5;0.7070663;2.342649;0.6756691;2.31502;-0.3762217;0.4663379;-0.3713601;0.4988215;
637946029574006418;353.5235;14;0;4.5;0.1;2.2;6108;0.736738703339882;-0.9526277;0.9499994;-0.9287137;0.9625788;0.7070663;2.342649;0.6756691;2.31502;
637946029614987952;357.6216;14;0;4.5;0.1;2.2;4098;1.09809663250366;1.083289;1.691013;1.06262;1.682768;-0.9526277;0.9499994;-0.9287137;0.9625788;
637946029660969388;362.2191;14;0;4.5;0.1;2.2;4598;0.97868638538495;-1.083289;1.691012;-1.052335;1.704306;1.083289;1.691013;1.06262;1.682768;
637946029672962369;363.4187;14;0;4.5;0.1;2.2;1200;3.75;0.9526281;0.9500003;0.9271213;0.9800271;-1.083289;1.691012;-1.052335;1.704306;
637946029720054082;368.1278;14;0;4.5;0.1;2.2;4709;0.955616903801232;-0.7070671;2.342648;-0.6757187;2.321796;0.9526281;0.9500003;0.9271213;0.9800271;
637946029771026762;373.2252;14;0;4.5;0.1;2.2;5097;0.882872277810477;0.3762226;0.4663382;0.3850799;0.479612;-0.7070671;2.342648;-0.6757187;2.321796;
637946029791021733;375.2244;14;0;4;0.1;1.4;1100;3.63636363636364;-0.2394138;0.8422151;-0.2374876;0.8891159;0;2.2;0.03568307;2.20009;
637946029838113446;379.9333;14;0;4;0.1;1.4;4709;0.849437247823317;0.4499513;2.036231;0.4333467;2.020062;-0.2394138;0.8422151;-0.2374876;0.8891159;
637946029890088848;385.1309;14;0;4;0.1;1.4;5198;0.769526741054252;-0.6062176;1.15;-0.5956531;1.182724;0.4499513;2.036231;0.4333467;2.020062;
637946029899091087;386.0302;14;0;4;0.1;1.4;899;4.44938820912125;0.6893654;1.621554;0.6573743;1.659472;-0.6062176;1.15;-0.5956531;1.182724;
637946029949176657;391.0392;14;0;4;0.1;1.4;5009;0.798562587342783;-0.6893655;1.621553;-0.6582497;1.623842;0.6893654;1.621554;0.6573743;1.659472;
637946029961166744;392.2386;14;0;4;0.1;1.4;1199;3.33611342785655;0.6062179;1.15;0.6228738;1.196721;-0.6893655;1.621553;-0.6582497;1.623842;
637946029973168793;393.4381;14;0;4;0.1;1.4;1199;3.33611342785655;-0.4499517;2.036231;-0.4362825;2.044386;0.6062179;1.15;0.6228738;1.196721;
637946029984167234;394.5376;14;0;4;0.1;1.4;1100;3.63636363636364;0.2394144;0.8422153;0.2685689;0.8572593;-0.4499517;2.036231;-0.4362825;2.044386;
637946030027146140;398.8357;14;0;3.5;0.2;2;3598;0.972762645914397;-0.3420197;0.5603072;-0.3380819;0.6428643;0;2.5;-0.03458022;2.510233;
637946030037141994;399.8354;14;0;3.5;0.2;2;1000;3.5;0.6427875;2.266045;0.5472511;2.267201;-0.3420197;0.5603072;-0.3380819;0.6428643;
637946030063130947;402.434;14;0;3.5;0.2;2;2599;1.34667179684494;-0.8660251;0.9999995;-0.7971087;1.013422;0.6427875;2.266045;0.5472511;2.267201;
637946030073123426;403.4336;14;0;3.5;0.2;2;1000;3.5;0.9848077;1.673648;0.903708;1.644723;-0.8660251;0.9999995;-0.7971087;1.013422;
637946030083225938;404.4444;14;0;3.5;0.2;2;1011;3.46191889218595;-0.9848078;1.673648;-0.9236124;1.674341;0.9848077;1.673648;0.903708;1.644723;
637946030101220459;406.2433;14;0;3.5;0.2;2;1799;1.94552529182879;0.8660256;1;0.8234572;1.032444;-0.9848078;1.673648;-0.9236124;1.674341;
637946030112219804;407.3428;14;0;3.5;0.2;2;1099;3.18471337579618;-0.6427882;2.266044;-0.6599633;2.277865;0.8660256;1;0.8234572;1.032444;
637946030120420122;408.1708;14;0;3.5;0.2;2;828;4.22705314009662;0.3420205;0.5603075;0.2803788;0.6390126;-0.6427882;2.266044;-0.6599633;2.277865;
637946030154309038;411.5523;14;0;2.5;0.3;1.4;2699;0.926268988514265;-0.2394138;0.8422151;-0.2136943;0.9046497;0;2.2;0.03160961;2.247628;
637946030161301620;412.2516;14;0;2.5;0.3;1.4;699;3.57653791130186;0.4499513;2.036231;0.393623;2.018337;-0.2394138;0.8422151;-0.2136943;0.9046497;
637946030170299483;413.1514;14;0;2.5;0.3;1.4;900;2.77777777777778;-0.6062176;1.15;-0.6683916;1.107442;0.4499513;2.036231;0.393623;2.018337;
637946030200293557;416.1499;14;0;2.5;0.3;1.4;2998;0.833889259506338;0.6893654;1.621554;0.5889218;1.617532;-0.6062176;1.15;-0.6683916;1.107442;
637946030227281746;418.8487;14;0;2.5;0.3;1.4;2699;0.926268988514265;-0.6893655;1.621553;-0.6052588;1.637119;0.6893654;1.621554;0.5889218;1.617532;
637946030235273734;419.6483;14;0;2.5;0.3;1.4;800;3.125;0.6062179;1.15;0.6598508;1.0426;-0.6893655;1.621553;-0.6052588;1.637119;
637946030244385999;420.5591;14;0;2.5;0.3;1.4;911;2.74423710208562;-0.4499517;2.036231;-0.5349653;2.139284;0.6062179;1.15;0.6598508;1.0426;
637946030278364454;423.9575;14;0;2.5;0.3;1.4;3398;0.735726898175397;0.2394144;0.8422153;0.2310971;0.9098703;-0.4499517;2.036231;-0.5349653;2.139284;
637946032344998632;630.6169;14;1;4;0.1;1.4;3359;1.19083060434653;-0.2394138;0.8422151;-0.233628;0.8706356;0;2.2;0.04015581;2.182177;
637946032388978947;635.0148;14;1;4;0.1;1.4;4398;0.909504320145521;0.4499513;2.036231;0.4325369;2.028181;-0.2394138;0.8422151;-0.233628;0.8706356;
637946032437959954;639.9128;14;1;4;0.1;1.4;4898;0.816659861167824;-0.6062176;1.15;-0.5879728;1.164037;0.4499513;2.036231;0.4325369;2.028181;
637946032469053397;643.0223;14;1;4;0.1;1.4;3110;1.28617363344051;0.6893654;1.621554;0.6657687;1.601879;-0.6062176;1.15;-0.5879728;1.164037;
637946032521026691;648.2199;14;1;4;0.1;1.4;5198;0.769526741054252;-0.6893655;1.621553;-0.6501464;1.623475;0.6893654;1.621554;0.6657687;1.601879;
637946032574115719;653.5286;14;1;4;0.1;1.4;5309;0.753437558862309;0.6062179;1.15;0.5852071;1.174003;-0.6893655;1.621553;-0.6501464;1.623475;
637946032613094865;657.4266;14;1;4;0.1;1.4;3898;1.02616726526424;-0.4499517;2.036231;-0.4350677;2.028489;0.6062179;1.15;0.5852071;1.174003;
637946032686182011;664.7344;14;1;4;0.1;1.4;7308;0.547345374931582;0.2394144;0.8422153;0.2308682;0.8734331;-0.4499517;2.036231;-0.4350677;2.028489;
637946032718159513;667.933;14;1;3;0.2;1.4;2399;1.25052105043768;-0.2394138;0.8422151;-0.1859199;0.8767971;0;2.2;-0.01049408;2.22244;
637946032739154432;670.0319;14;1;3;0.2;1.4;2099;1.4292520247737;0.4499513;2.036231;0.3769576;2.012403;-0.2394138;0.8422151;-0.1859199;0.8767971;
637946032775252908;673.6415;14;1;3;0.2;1.4;3610;0.831024930747922;-0.6062176;1.15;-0.5743818;1.186061;0.4499513;2.036231;0.3769576;2.012403;
637946032821223694;678.2394;14;1;3;0.2;1.4;4598;0.652457590256633;0.6893654;1.621554;0.6330308;1.634483;-0.6062176;1.15;-0.5743818;1.186061;
637946032827229426;678.8391;14;1;3;0.2;1.4;600;5;-0.6893655;1.621553;-0.6741505;1.596164;0.6893654;1.621554;0.6330308;1.634483;
637946032849211094;681.0379;14;1;3;0.2;1.4;2199;1.36425648021828;0.6062179;1.15;0.5548206;1.231419;-0.6893655;1.621553;-0.6741505;1.596164;
637946032874209910;683.5371;14;1;3;0.2;1.4;2499;1.20048019207683;-0.4499517;2.036231;-0.4152782;1.99053;0.6062179;1.15;0.5548206;1.231419;
637946032906299844;686.7463;14;1;3;0.2;1.4;3209;0.934870676223122;0.2394144;0.8422153;0.2157242;0.897012;-0.4499517;2.036231;-0.4152782;1.99053;
637946032935286642;689.645;14;1;2.5;0.3;1.4;700;3.57142857142857;-0.2394138;0.8422151;-0.1852982;0.9728689;0;2.2;0.0148411;2.075253;
637946032987258837;694.8427;14;1;2.5;0.3;1.4;5198;0.480954213158907;0.4499513;2.036231;0.3488599;1.993786;-0.2394138;0.8422151;-0.1852982;0.9728689;
637946033017245873;697.8413;14;1;2.5;0.3;1.4;2999;0.833611203734578;-0.6062176;1.15;-0.5331895;1.21181;0.4499513;2.036231;0.3488599;1.993786;
637946033047232907;700.8402;14;1;2.5;0.3;1.4;2999;0.833611203734578;0.6893654;1.621554;0.673555;1.611701;-0.6062176;1.15;-0.5331895;1.21181;
637946033054344575;701.5508;14;1;2.5;0.3;1.4;711;3.51617440225035;-0.6893655;1.621553;-0.7273853;1.632056;0.6893654;1.621554;0.673555;1.611701;
637946033083331376;704.4495;14;1;2.5;0.3;1.4;2899;0.862366333218351;0.6062179;1.15;0.5581637;1.229249;-0.6893655;1.621553;-0.7273853;1.632056;
637946033089322790;705.049;14;1;2.5;0.3;1.4;599;4.17362270450751;-0.4499517;2.036231;-0.3338604;1.94345;0.6062179;1.15;0.5581637;1.229249;
637946033124310988;708.5474;14;1;2.5;0.3;1.4;3499;0.71448985424407;0.2394144;0.8422153;0.2162351;0.9252206;-0.4499517;2.036231;-0.3338604;1.94345;
637946033151297322;711.2464;14;1;1.5;1.1;2;700;2.14285714285714;-0.3420197;0.5603072;-0.3106731;0.7337255;0;2.5;0.1129591;2.362844;
637946033179291330;714.0452;14;1;1.5;1.1;2;2799;0.535905680600214;0.6427875;2.266045;0.2521692;2.138771;-0.3420197;0.5603072;-0.3106731;0.7337255;
637946033184282504;714.5447;14;1;1.5;1.1;2;500;3;-0.8660251;0.9999995;-0.5780034;1.319545;0.6427875;2.266045;0.2521692;2.138771;
637946033219281103;718.0443;14;1;1.5;1.1;2;3500;0.428571428571429;0.9848077;1.673648;0.7318605;1.795181;-0.8660251;0.9999995;-0.5780034;1.319545;
637946033244366984;720.5529;14;1;1.5;1.1;2;2509;0.597847748106815;-0.9848078;1.673648;-0.5875953;1.746764;0.9848077;1.673648;0.7318605;1.795181;
637946033251368629;721.2526;14;1;1.5;1.1;2;700;2.14285714285714;0.8660256;1;0.728866;1.147546;-0.9848078;1.673648;-0.5875953;1.746764;
637946033293348479;725.4507;14;1;1.5;1.1;2;4198;0.357313006193425;-0.6427882;2.266044;-0.4465859;2.192686;0.8660256;1;0.728866;1.147546;
637946033299339884;726.0506;14;1;1.5;1.1;2;600;2.5;0.3420205;0.5603075;0.3101605;0.9129916;-0.6427882;2.266044;-0.4465859;2.192686;
637946033387430567;734.8575;14;1;3.5;0.2;2;4010;0.872817955112219;-0.3420197;0.5603072;-0.3175167;0.6096426;0;2.5;-0.002642719;2.478877;
637946033395412420;735.6576;14;1;3.5;0.2;2;800;4.375;0.6427875;2.266045;0.5552164;2.265603;-0.3420197;0.5603072;-0.3175167;0.6096426;
637946033440387962;740.1552;14;1;3.5;0.2;2;4498;0.778123610493553;-0.8660251;0.9999995;-0.817636;1.047809;0.6427875;2.266045;0.5552164;2.265603;
637946033464491642;742.565;14;1;3.5;0.2;2;2410;1.45228215767635;0.9848077;1.673648;0.9372463;1.709841;-0.8660251;0.9999995;-0.817636;1.047809;
637946033471493292;743.265;14;1;3.5;0.2;2;700;5;-0.9848078;1.673648;-0.9773045;1.60007;0.9848077;1.673648;0.9372463;1.709841;
637946033504728927;746.5964;14;1;3.5;0.2;2;3331;1.0507355148604;0.8660256;1;0.8024457;1.076015;-0.9848078;1.673648;-0.9773045;1.60007;
637946033512460737;747.3625;14;1;3.5;0.2;2;766;4.56919060052219;-0.6427882;2.266044;-0.5526419;2.306329;0.8660256;1;0.8024457;1.076015;
637946033549452934;751.0612;14;1;3.5;0.2;2;3699;0.946201676128683;0.3420205;0.5603075;0.3244053;0.6369922;-0.6427882;2.266044;-0.5526419;2.306329;
637946033613537967;757.4694;14;1;4.5;0.1;2.2;1100;4.09090909090909;-0.3762217;0.4663379;-0.377736;0.5013269;0;2.6;-0.01228516;2.579623;
637946033624530542;758.5687;14;1;4.5;0.1;2.2;1099;4.09463148316652;0.7070663;2.342649;0.6913786;2.343376;-0.3762217;0.4663379;-0.377736;0.5013269;
637946033659508757;762.067;14;1;4.5;0.1;2.2;3498;1.28644939965695;-0.9526277;0.9499994;-0.9258081;0.9763566;0.7070663;2.342649;0.6913786;2.343376;
637946033668510866;762.9667;14;1;4.5;0.1;2.2;900;5;1.083289;1.691013;1.099619;1.719349;-0.9526277;0.9499994;-0.9258081;0.9763566;
637946033680503678;764.1661;14;1;4.5;0.1;2.2;1199;3.75312760633862;-1.083289;1.691012;-1.069813;1.693166;1.083289;1.691013;1.099619;1.719349;
637946033722483527;768.3641;14;1;4.5;0.1;2.2;4198;1.07193901858028;0.9526281;0.9500003;0.9380772;0.9923205;-1.083289;1.691012;-1.069813;1.693166;
637946033731485640;769.2639;14;1;4.5;0.1;2.2;900;5;-0.7070671;2.342648;-0.6781903;2.313388;0.9526281;0.9500003;0.9380772;0.9923205;
637946033740587779;770.1744;14;1;4.5;0.1;2.2;910;4.94505494505495;0.3762226;0.4663382;0.4078547;0.504339;-0.7070671;2.342648;-0.6781903;2.313388;
637946033761582699;772.2737;14;1;2;0.6;1.8;600;3.33333333333333;-0.3078177;0.6542765;-0.2575676;0.8632113;0;2.4;0.01498845;2.469221;
637946033795560672;775.6719;14;1;2;0.6;1.8;3398;0.588581518540318;0.5785087;2.18944;0.6952253;2.176916;-0.3078177;0.6542765;-0.2575676;0.8632113;
637946033818556067;777.9709;14;1;2;0.6;1.8;2299;0.869943453675511;-0.7794226;1.05;-0.6735601;1.180367;0.5785087;2.18944;0.6952253;2.176916;
637946033835537819;779.6697;14;1;2;0.6;1.8;1699;1.17716303708064;0.8863269;1.656283;0.7513995;1.582432;-0.7794226;1.05;-0.6735601;1.180367;
637946033854532265;781.5689;14;1;2;0.6;1.8;1899;1.05318588730911;-0.8863271;1.656283;-0.6698613;1.638103;0.8863269;1.656283;0.7513995;1.582432;
637946033873528196;783.4689;14;1;2;0.6;1.8;1900;1.05263157894737;0.779423;1.05;0.7054597;1.214923;-0.8863271;1.656283;-0.6698613;1.638103;
637946033905625243;786.6779;14;1;2;0.6;1.8;3209;0.623247117482082;-0.5785094;2.18944;-0.3841825;2.067672;0.779423;1.05;0.7054597;1.214923;
637946033911619980;787.2776;14;1;2;0.6;1.8;600;3.33333333333333;0.3078185;0.6542768;0.3194427;0.8955095;-0.5785094;2.18944;-0.3841825;2.067672;
637946035082096758;904.3234;14;2;2.5;0.3;1.4;1399;1.78699070764832;-0.2394138;0.8422151;-0.2503198;0.9717361;0;2.2;-0.0279137;2.269015;
637946035093079321;905.4227;14;2;2.5;0.3;1.4;1099;2.27479526842584;0.4499513;2.036231;0.3927419;1.963115;-0.2394138;0.8422151;-0.2503198;0.9717361;
637946035098080494;905.9224;14;2;2.5;0.3;1.4;500;5;-0.6062176;1.15;-0.5031278;1.249431;0.4499513;2.036231;0.3927419;1.963115;
637946035112183809;907.3328;14;2;2.5;0.3;1.4;1410;1.77304964539007;0.6893654;1.621554;0.6410229;1.636712;-0.6062176;1.15;-0.5031278;1.249431;
637946035117184980;907.8329;14;2;2.5;0.3;1.4;500;5;-0.6893655;1.621553;-0.5522186;1.651479;0.6893654;1.621554;0.6410229;1.636712;
637946035125176961;908.6325;14;2;2.5;0.3;1.4;800;3.125;0.6062179;1.15;0.5549965;1.149138;-0.6893655;1.621553;-0.5522186;1.651479;
637946035131178390;909.232;14;2;2.5;0.3;1.4;600;4.16666666666667;-0.4499517;2.036231;-0.3160613;2.051551;0.6062179;1.15;0.5549965;1.149138;
637946035152178267;911.332;14;2;2.5;0.3;1.4;2100;1.19047619047619;0.2394144;0.8422153;0.2047007;0.9375843;-0.4499517;2.036231;-0.3160613;2.051551;
637946035171162720;913.23;14;2;3.5;0.2;2;970;3.60824742268041;-0.3420197;0.5603072;-0.3249706;0.5897485;0;2.5;-0.01856716;2.583756;
637946035179154595;914.0297;14;2;3.5;0.2;2;800;4.375;0.6427875;2.266045;0.5790617;2.223032;-0.3420197;0.5603072;-0.3249706;0.5897485;
637946035196148578;915.729;14;2;3.5;0.2;2;1699;2.06003531489111;-0.8660251;0.9999995;-0.8232046;0.9951605;0.6427875;2.266045;0.5790617;2.223032;
637946035218133739;917.9279;14;2;3.5;0.2;2;2199;1.59163256025466;0.9848077;1.673648;0.9275275;1.664932;-0.8660251;0.9999995;-0.8232046;0.9951605;
637946035234127493;919.5272;14;2;3.5;0.2;2;1599;2.18886804252658;-0.9848078;1.673648;-0.9561939;1.71785;0.9848077;1.673648;0.9275275;1.664932;
637946035241129139;920.2273;14;2;3.5;0.2;2;700;5;0.8660256;1;0.8340423;1.076868;-0.9848078;1.673648;-0.9561939;1.71785;
637946035249131015;921.0269;14;2;3.5;0.2;2;800;4.375;-0.6427882;2.266044;-0.5880206;2.228999;0.8660256;1;0.8340423;1.076868;
637946035283219011;924.4362;14;2;3.5;0.2;2;3409;1.02669404517454;0.3420205;0.5603075;0.3211639;0.6268355;-0.6427882;2.266044;-0.5880206;2.228999;
637946035297212291;925.8356;14;2;3;0.2;1.4;700;4.28571428571429;-0.2394138;0.8422151;-0.1778667;0.8593751;0;2.2;0.01681823;2.14916;
637946035304203931;926.5349;14;2;3;0.2;1.4;699;4.29184549356223;0.4499513;2.036231;0.4283533;2.039696;-0.2394138;0.8422151;-0.1778667;0.8593751;
637946035327199327;928.8344;14;2;3;0.2;1.4;2299;1.30491518051327;-0.6062176;1.15;-0.5665686;1.140157;0.4499513;2.036231;0.4283533;2.039696;
637946035337201672;929.8339;14;2;3;0.2;1.4;1000;3;0.6893654;1.621554;0.6720157;1.675346;-0.6062176;1.15;-0.5665686;1.140157;
637946035355185892;931.6326;14;2;3;0.2;1.4;1799;1.66759310728182;-0.6893655;1.621553;-0.6532879;1.648041;0.6893654;1.621554;0.6720157;1.675346;
637946035382172224;934.3314;14;2;3;0.2;1.4;2699;1.11152278621712;0.6062179;1.15;0.5705774;1.18325;-0.6893655;1.621553;-0.6532879;1.648041;
637946035389173866;935.0312;14;2;3;0.2;1.4;700;4.28571428571429;-0.4499517;2.036231;-0.4122352;2.063452;0.6062179;1.15;0.5705774;1.18325;
637946035396175511;935.7314;14;2;3;0.2;1.4;700;4.28571428571429;0.2394144;0.8422153;0.2490577;0.9310511;-0.4499517;2.036231;-0.4122352;2.063452;
637946035432259664;939.3401;14;2;4.5;0.1;2.2;999;4.5045045045045;-0.3762217;0.4663379;-0.3611973;0.5119393;0;2.6;0.007071277;2.593384;
637946035447263184;940.8398;14;2;4.5;0.1;2.2;1500;3;0.7070663;2.342649;0.6714008;2.33772;-0.3762217;0.4663379;-0.3611973;0.5119393;
637946035456255286;941.7392;14;2;4.5;0.1;2.2;899;5.0055617352614;-0.9526277;0.9499994;-0.9385312;0.9759055;0.7070663;2.342649;0.6714008;2.33772;
637946035468560459;942.977;14;2;4.5;0.1;2.2;1238;3.63489499192246;1.083289;1.691013;1.126003;1.696784;-0.9526277;0.9499994;-0.9385312;0.9759055;
637946035485238728;944.6379;14;2;4.5;0.1;2.2;1661;2.70921131848284;-1.083289;1.691012;-1.047484;1.667907;1.083289;1.691013;1.126003;1.696784;
637946035512225059;947.3366;14;2;4.5;0.1;2.2;2699;1.66728417932568;0.9526281;0.9500003;0.9305769;0.9698043;-1.083289;1.691012;-1.047484;1.667907;
637946035533219986;949.436;14;2;4.5;0.1;2.2;2099;2.14387803716055;-0.7070671;2.342648;-0.6708428;2.341903;0.9526281;0.9500003;0.9305769;0.9698043;
637946035546213035;950.735;14;2;4.5;0.1;2.2;1299;3.46420323325635;0.3762226;0.4663382;0.361986;0.511761;-0.7070671;2.342648;-0.6708428;2.341903;
637946035560206318;952.1345;14;2;1.5;1.1;2;700;2.14285714285714;-0.3420197;0.5603072;-0.1977716;0.9971318;0;2.5;0.03187058;2.309324;
637946035568318222;952.9451;14;2;1.5;1.1;2;811;1.84956843403206;0.6427875;2.266045;0.30019;1.959965;-0.3420197;0.5603072;-0.1977716;0.9971318;
637946035573309390;953.4449;14;2;1.5;1.1;2;500;3;-0.8660251;0.9999995;-0.5473997;1.373493;0.6427875;2.266045;0.30019;1.959965;
637946035586312441;954.7446;14;2;1.5;1.1;2;1300;1.15384615384615;0.9848077;1.673648;0.7016135;1.86276;-0.8660251;0.9999995;-0.5473997;1.373493;
637946035593304081;955.444;14;2;1.5;1.1;2;699;2.14592274678112;-0.9848078;1.673648;-0.545756;1.768857;0.9848077;1.673648;0.7016135;1.86276;
637946035605296893;956.6436;14;2;1.5;1.1;2;1200;1.25;0.8660256;1;0.6018275;1.407232;-0.9848078;1.673648;-0.545756;1.768857;
637946035612288538;957.3429;14;2;1.5;1.1;2;699;2.14592274678112;-0.6427882;2.266044;-0.4353425;2.264807;0.8660256;1;0.6018275;1.407232;
637946035618289942;957.943;14;2;1.5;1.1;2;600;2.5;0.3420205;0.5603075;0.2843619;0.9731268;-0.6427882;2.266044;-0.4353425;2.264807;
637946035667271435;962.8405;14;2;4;0.1;1.4;1300;3.07692307692308;-0.2394138;0.8422151;-0.211889;0.8839128;0;2.2;-0.01279892;2.159191;
637946035683265181;964.4398;14;2;4;0.1;1.4;1599;2.50156347717323;0.4499513;2.036231;0.4587074;2.062703;-0.2394138;0.8422151;-0.211889;0.8839128;
637946035691257063;965.2393;14;2;4;0.1;1.4;799;5.00625782227785;-0.6062176;1.15;-0.5755841;1.166479;0.4499513;2.036231;0.4587074;2.062703;
637946035699258941;966.0391;14;2;4;0.1;1.4;800;5;0.6893654;1.621554;0.6816357;1.636529;-0.6062176;1.15;-0.5755841;1.166479;
637946035708251050;966.9386;14;2;4;0.1;1.4;899;4.44938820912125;-0.6893655;1.621553;-0.6737075;1.641341;0.6893654;1.621554;0.6816357;1.636529;
637946035717243158;967.8383;14;2;4;0.1;1.4;900;4.44444444444444;0.6062179;1.15;0.5868625;1.173387;-0.6893655;1.621553;-0.6737075;1.641341;
637946035742349051;970.3485;14;2;4;0.1;1.4;2510;1.59362549800797;-0.4499517;2.036231;-0.4860617;2.020572;0.6062179;1.15;0.5868625;1.173387;
637946035750340922;971.1479;14;2;4;0.1;1.4;799;5.00625782227785;0.2394144;0.8422153;0.2325648;0.8819628;-0.4499517;2.036231;-0.4860617;2.020572;
637946035767336767;972.8469;14;2;2;0.6;1.8;1000;2;-0.3078177;0.6542765;-0.2102192;0.7031045;0;2.4;0.02675323;2.352026;
637946035774328415;973.5468;14;2;2;0.6;1.8;700;2.85714285714286;0.5785087;2.18944;0.518785;2.13409;-0.3078177;0.6542765;-0.2102192;0.7031045;
637946035789321929;975.046;14;2;2;0.6;1.8;1499;1.33422281521014;-0.7794226;1.05;-0.6268409;1.190305;0.5785087;2.18944;0.518785;2.13409;
637946035795313338;975.6454;14;2;2;0.6;1.8;599;3.33889816360601;0.8863269;1.656283;0.773699;1.661087;-0.7794226;1.05;-0.6268409;1.190305;
637946035800324512;976.1457;14;2;2;0.6;1.8;500;4;-0.8863271;1.656283;-0.5882252;1.624676;0.8863269;1.656283;0.773699;1.661087;
637946035816319930;977.7453;14;2;2;0.6;1.8;1600;1.25;0.779423;1.05;0.721998;1.198619;-0.8863271;1.656283;-0.5882252;1.624676;
637946035826315371;978.7443;14;2;2;0.6;1.8;999;2.002002002002;-0.5785094;2.18944;-0.428874;2.191584;0.779423;1.05;0.721998;1.198619;
637946035841303243;980.2437;14;2;2;0.6;1.8;1499;1.33422281521014;0.3078185;0.6542768;0.2688341;0.914857;-0.5785094;2.18944;-0.428874;2.191584;
637946037195924824;1115.704;14;3;4.5;0.1;2.2;3799;1.18452224269545;-0.3762217;0.4663379;-0.3558042;0.4793733;0;2.6;0.005025627;2.604027;
637946037214899280;1117.602;14;3;4.5;0.1;2.2;1898;2.3709167544784;0.7070663;2.342649;0.704981;2.304988;-0.3762217;0.4663379;-0.3558042;0.4793733;
637946037241895609;1120.301;14;3;4.5;0.1;2.2;2699;1.66728417932568;-0.9526277;0.9499994;-0.9169056;0.947597;0.7070663;2.342649;0.704981;2.304988;
637946037253888425;1121.5;14;3;4.5;0.1;2.2;1199;3.75312760633862;1.083289;1.691013;1.082153;1.684679;-0.9526277;0.9499994;-0.9169056;0.947597;
637946037265991262;1122.711;14;3;4.5;0.1;2.2;1210;3.71900826446281;-1.083289;1.691012;-1.093887;1.680033;1.083289;1.691013;1.082153;1.684679;
637946037275982178;1123.711;14;3;4.5;0.1;2.2;1000;4.5;0.9526281;0.9500003;0.9062845;0.9344094;-1.083289;1.691012;-1.093887;1.680033;
637946037308975721;1127.009;14;3;4.5;0.1;2.2;3298;1.36446331109763;-0.7070671;2.342648;-0.7299975;2.363115;0.9526281;0.9500003;0.9062845;0.9344094;
637946037320968574;1128.208;14;3;4.5;0.1;2.2;1200;3.75;0.3762226;0.4663382;0.3865613;0.4987185;-0.7070671;2.342648;-0.7299975;2.363115;
637946037332963585;1129.408;14;3;2.5;0.3;1.4;570;4.3859649122807;-0.2394138;0.8422151;-0.1820123;0.9110383;0;2.2;-0.04890241;2.075818;
637946037339959813;1130.107;14;3;2.5;0.3;1.4;699;3.57653791130186;0.4499513;2.036231;0.4823022;2.087773;-0.2394138;0.8422151;-0.1820123;0.9110383;
637946037352948291;1131.407;14;3;2.5;0.3;1.4;1300;1.92307692307692;-0.6062176;1.15;-0.5258032;1.246687;0.4499513;2.036231;0.4823022;2.087773;
637946037359945792;1132.107;14;3;2.5;0.3;1.4;700;3.57142857142857;0.6893654;1.621554;0.7046166;1.639585;-0.6062176;1.15;-0.5258032;1.246687;
637946037378934335;1134.006;14;3;2.5;0.3;1.4;1899;1.31648235913639;-0.6893655;1.621553;-0.6016688;1.635823;0.6893654;1.621554;0.7046166;1.639585;
637946037406040698;1136.716;14;3;2.5;0.3;1.4;2710;0.922509225092251;0.6062179;1.15;0.5829922;1.204772;-0.6893655;1.621553;-0.6016688;1.635823;
637946037414032571;1137.515;14;3;2.5;0.3;1.4;800;3.125;-0.4499517;2.036231;-0.40856;2.080609;0.6062179;1.15;0.5829922;1.204772;
637946037421034215;1138.215;14;3;2.5;0.3;1.4;700;3.57142857142857;0.2394144;0.8422153;0.226687;0.9093885;-0.4499517;2.036231;-0.40856;2.080609;
637946037439028436;1140.014;14;3;2;0.6;1.8;800;2.5;-0.3078177;0.6542765;-0.1894533;0.7463027;0;2.4;0.0544877;2.178021;
637946037453021717;1141.414;14;3;2;0.6;1.8;1399;1.42959256611866;0.5785087;2.18944;0.5258966;2.189056;-0.3078177;0.6542765;-0.1894533;0.7463027;
637946037458322960;1141.952;14;3;2;0.6;1.8;538;3.71747211895911;-0.7794226;1.05;-0.5410759;1.231446;0.5785087;2.18944;0.5258966;2.189056;
637946037464014303;1142.513;14;3;2;0.6;1.8;561;3.5650623885918;0.8863269;1.656283;0.7575176;1.768733;-0.7794226;1.05;-0.5410759;1.231446;
637946037473006404;1143.413;14;3;2;0.6;1.8;900;2.22222222222222;-0.8863271;1.656283;-0.9853378;1.726724;0.8863269;1.656283;0.7575176;1.768733;
637946037485999452;1144.712;14;3;2;0.6;1.8;1299;1.53964588144727;0.779423;1.05;0.6210492;1.208295;-0.8863271;1.656283;-0.9853378;1.726724;
637946037492000856;1145.312;14;3;2;0.6;1.8;600;3.33333333333333;-0.5785094;2.18944;-0.3799152;2.00163;0.779423;1.05;0.6210492;1.208295;
637946037498992503;1146.011;14;3;2;0.6;1.8;699;2.86123032904149;0.3078185;0.6542768;0.298362;0.7730986;-0.5785094;2.18944;-0.3799152;2.00163;
637946037523988367;1148.51;14;3;4;0.1;1.4;1700;2.35294117647059;-0.2394138;0.8422151;-0.2066076;0.8481876;0;2.2;0.03728137;2.211762;
637946037542972819;1150.409;14;3;4;0.1;1.4;1899;2.10637177461822;0.4499513;2.036231;0.4431557;2.057036;-0.2394138;0.8422151;-0.2066076;0.8481876;
637946037550284534;1151.148;14;3;4;0.1;1.4;739;5.4127198917456;-0.6062176;1.15;-0.5570399;1.148002;0.4499513;2.036231;0.4431557;2.057036;
637946037573079882;1153.419;14;3;4;0.1;1.4;2271;1.76133861734919;0.6893654;1.621554;0.6928169;1.624665;-0.6062176;1.15;-0.5570399;1.148002;
637946037585072696;1154.619;14;3;4;0.1;1.4;1199;3.33611342785655;-0.6893655;1.621553;-0.642969;1.627342;0.6893654;1.621554;0.6928169;1.624665;
637946037606057622;1156.718;14;3;4;0.1;1.4;2099;1.90566936636494;0.6062179;1.15;0.5867473;1.166515;-0.6893655;1.621553;-0.642969;1.627342;
637946037616049964;1157.717;14;3;4;0.1;1.4;1000;4;-0.4499517;2.036231;-0.4500428;2.00987;0.6062179;1.15;0.5867473;1.166515;
637946037644040740;1160.516;14;3;4;0.1;1.4;2798;1.42959256611866;0.2394144;0.8422153;0.2452806;0.8747075;-0.4499517;2.036231;-0.4500428;2.00987;
637946037654043086;1161.515;14;3;1.5;1.1;2;400;3.75;-0.3420197;0.5603072;-0.1119786;0.9407485;0;2.5;0.1157243;2.25452;
637946037667036133;1162.815;14;3;1.5;1.1;2;1300;1.15384615384615;0.6427875;2.266045;0.4445537;2.094255;-0.3420197;0.5603072;-0.1119786;0.9407485;
637946037690020346;1165.114;14;3;1.5;1.1;2;2299;0.652457590256633;-0.8660251;0.9999995;-0.675739;1.163837;0.6427875;2.266045;0.4445537;2.094255;
637946037696021754;1165.713;14;3;1.5;1.1;2;600;2.5;0.9848077;1.673648;0.646715;1.689428;-0.8660251;0.9999995;-0.675739;1.163837;
637946037702013165;1166.313;14;3;1.5;1.1;2;599;2.50417362270451;-0.9848078;1.673648;-0.776186;1.603598;0.9848077;1.673648;0.646715;1.689428;
637946037707014333;1166.813;14;3;1.5;1.1;2;500;3;0.8660256;1;0.5721197;1.176667;-0.9848078;1.673648;-0.776186;1.603598;
637946037713125766;1167.424;14;3;1.5;1.1;2;611;2.45499181669394;-0.6427882;2.266044;-0.3064852;2.128006;0.8660256;1;0.5721197;1.176667;
637946037718116938;1167.923;14;3;1.5;1.1;2;500;3;0.3420205;0.5603075;0.3285514;0.8787835;-0.6427882;2.266044;-0.3064852;2.128006;
637946037741112333;1170.222;14;3;3;0.2;1.4;900;3.33333333333333;-0.2394138;0.8422151;-0.2035517;0.9283501;0;2.2;-0.005770231;2.15552;
637946037748103973;1170.922;14;3;3;0.2;1.4;700;4.28571428571429;0.4499513;2.036231;0.4683078;2.006751;-0.2394138;0.8422151;-0.2035517;0.9283501;
637946037755105617;1171.622;14;3;3;0.2;1.4;700;4.28571428571429;-0.6062176;1.15;-0.662798;1.185753;0.4499513;2.036231;0.4683078;2.006751;
637946037762097255;1172.321;14;3;3;0.2;1.4;700;4.28571428571429;0.6893654;1.621554;0.7011071;1.658841;-0.6062176;1.15;-0.662798;1.185753;
637946037777090773;1173.821;14;3;3;0.2;1.4;1499;2.00133422281521;-0.6893655;1.621553;-0.6944784;1.667354;0.6893654;1.621554;0.7011071;1.658841;
637946037784092416;1174.52;14;3;3;0.2;1.4;699;4.29184549356223;0.6062179;1.15;0.6213153;1.161551;-0.6893655;1.621553;-0.6944784;1.667354;
637946037796305280;1175.75;14;3;3;0.2;1.4;1229;2.44100895036615;-0.4499517;2.036231;-0.397173;1.95165;0.6062179;1.15;0.6213153;1.161551;
637946037805077338;1176.619;14;3;3;0.2;1.4;870;3.44827586206897;0.2394144;0.8422153;0.2227286;0.9209912;-0.4499517;2.036231;-0.397173;1.95165;
637946037829072969;1179.019;14;3;3.5;0.2;2;900;3.88888888888889;-0.3420197;0.5603072;-0.3295673;0.5732756;0;2.5;-0.01113852;2.447252;
637946037837064843;1179.818;14;3;3.5;0.2;2;799;4.38047559449312;0.6427875;2.266045;0.5841329;2.291189;-0.3420197;0.5603072;-0.3295673;0.5732756;
637946037842286070;1180.347;14;3;3.5;0.2;2;529;6.61625708884688;-0.8660251;0.9999995;-0.8007634;1.07181;0.6427875;2.266045;0.5841329;2.291189;
637946037851058126;1181.217;14;3;3.5;0.2;2;870;4.02298850574713;0.9848077;1.673648;0.9143945;1.718946;-0.8660251;0.9999995;-0.8007634;1.07181;
637946037860050237;1182.117;14;3;3.5;0.2;2;900;3.88888888888889;-0.9848078;1.673648;-1.014237;1.693958;0.9848077;1.673648;0.9143945;1.718946;
637946037873373361;1183.456;14;3;3.5;0.2;2;1339;2.61389096340553;0.8660256;1;0.8097083;1.082638;-0.9848078;1.673648;-1.014237;1.693958;
637946037882165425;1184.327;14;3;3.5;0.2;2;871;4.01836969001148;-0.6427882;2.266044;-0.6246845;2.263821;0.8660256;1;0.8097083;1.082638;
637946037890157299;1185.127;14;3;3.5;0.2;2;800;4.375;0.3420205;0.5603075;0.3050364;0.5588201;-0.6427882;2.266044;-0.6246845;2.263821;
637946039939907073;1390.098;14;4;3.5;0.2;2;900;3.88888888888889;-0.3420197;0.5603072;-0.2581795;0.5784541;0;2.5;-0.003073744;2.451472;
637946039948899181;1390.998;14;4;3.5;0.2;2;900;3.88888888888889;0.6427875;2.266045;0.6097436;2.335744;-0.3420197;0.5603072;-0.2581795;0.5784541;
637946039958011316;1391.908;14;4;3.5;0.2;2;911;3.84193194291987;-0.8660251;0.9999995;-0.8182368;1.019879;0.6427875;2.266045;0.6097436;2.335744;
637946039986998120;1394.807;14;4;3.5;0.2;2;2899;1.20731286650569;0.9848077;1.673648;0.9172435;1.691031;-0.8660251;0.9999995;-0.8182368;1.019879;
637946039995990228;1395.707;14;4;3.5;0.2;2;900;3.88888888888889;-0.9848078;1.673648;-0.9371036;1.722558;0.9848077;1.673648;0.9172435;1.691031;
637946040003982103;1396.506;14;4;3.5;0.2;2;800;4.375;0.8660256;1;0.8121735;1.051845;-0.9848078;1.673648;-0.9371036;1.722558;
637946040028977971;1399.005;14;4;3.5;0.2;2;2499;1.40056022408964;-0.6427882;2.266044;-0.5780101;2.242304;0.8660256;1;0.8121735;1.051845;
637946040036969844;1399.805;14;4;3.5;0.2;2;799;4.38047559449312;0.3420205;0.5603075;0.2925428;0.6439817;-0.6427882;2.266044;-0.5780101;2.242304;
637946040071070166;1403.214;14;4;1.5;1.1;2;1910;0.785340314136126;-0.3420197;0.5603072;-0.2336945;0.9440025;0;2.5;0.0321934;2.321458;
637946040076061340;1403.714;14;4;1.5;1.1;2;500;3;0.6427875;2.266045;0.3189673;1.855923;-0.3420197;0.5603072;-0.2336945;0.9440025;
637946040088054150;1404.913;14;4;1.5;1.1;2;1199;1.25104253544621;-0.8660251;0.9999995;-0.6474007;1.246069;0.6427875;2.266045;0.3189673;1.855923;
637946040093055326;1405.413;14;4;1.5;1.1;2;500;3;0.9848077;1.673648;0.7023984;1.782464;-0.8660251;0.9999995;-0.6474007;1.246069;
637946040105056699;1406.613;14;4;1.5;1.1;2;1199;1.25104253544621;-0.9848078;1.673648;-0.6835763;1.688273;0.9848077;1.673648;0.7023984;1.782464;
637946040111047290;1407.213;14;4;1.5;1.1;2;600;2.5;0.8660256;1;0.6332887;1.268175;-0.9848078;1.673648;-0.6835763;1.688273;
637946040130045332;1409.111;14;4;1.5;1.1;2;1899;0.789889415481833;-0.6427882;2.266044;-0.3495721;2.205828;0.8660256;1;0.6332887;1.268175;
637946040135036501;1409.611;14;4;1.5;1.1;2;500;3;0.3420205;0.5603075;0.2615155;0.9591852;-0.6427882;2.266044;-0.3495721;2.205828;
637946040164133329;1412.521;14;4;3;0.2;1.4;2310;1.2987012987013;-0.2394138;0.8422151;-0.1658552;0.8593712;0;2.2;-0.04085565;2.23039;
637946040182127548;1414.32;14;4;3;0.2;1.4;1799;1.66759310728182;0.4499513;2.036231;0.4153404;2.075536;-0.2394138;0.8422151;-0.1658552;0.8593712;
637946040189129190;1415.02;14;4;3;0.2;1.4;700;4.28571428571429;-0.6062176;1.15;-0.561841;1.108865;0.4499513;2.036231;0.4153404;2.075536;
637946040196120833;1415.72;14;4;3;0.2;1.4;700;4.28571428571429;0.6893654;1.621554;0.6244712;1.656149;-0.6062176;1.15;-0.561841;1.108865;
637946040222106932;1418.318;14;4;3;0.2;1.4;2598;1.15473441108545;-0.6893655;1.621553;-0.6446098;1.658027;0.6893654;1.621554;0.6244712;1.656149;
637946040245112325;1420.618;14;4;3;0.2;1.4;2300;1.30434782608696;0.6062179;1.15;0.5517533;1.231139;-0.6893655;1.621553;-0.6446098;1.658027;
637946040254094432;1421.517;14;4;3;0.2;1.4;899;3.33704115684093;-0.4499517;2.036231;-0.4552194;2.058568;0.6062179;1.15;0.5517533;1.231139;
637946040278088295;1423.916;14;4;3;0.2;1.4;2399;1.25052105043768;0.2394144;0.8422153;0.2192104;0.8529748;-0.4499517;2.036231;-0.4552194;2.058568;
637946040360540536;1432.168;14;4;4.5;0.1;2.2;5654;0.795896710293597;-0.3762217;0.4663379;-0.3625323;0.5127952;0;2.6;-0.001842188;2.571528;
637946040370392848;1433.153;14;4;4.5;0.1;2.2;985;4.56852791878173;0.7070663;2.342649;0.6681919;2.311664;-0.3762217;0.4663379;-0.3625323;0.5127952;
637946040394138420;1435.521;14;4;4.5;0.1;2.2;2368;1.90033783783784;-0.9526277;0.9499994;-0.9331229;0.9560896;0.7070663;2.342649;0.6681919;2.311664;
637946040433237591;1439.431;14;4;4.5;0.1;2.2;3909;1.15118956254797;1.083289;1.691013;1.069615;1.699664;-0.9526277;0.9499994;-0.9331229;0.9560896;
637946040442229707;1440.33;14;4;4.5;0.1;2.2;900;5;-1.083289;1.691012;-1.056293;1.694125;1.083289;1.691013;1.069615;1.699664;
637946040506204711;1446.727;14;4;4.5;0.1;2.2;6397;0.703454744411443;0.9526281;0.9500003;0.9247147;0.9598783;-1.083289;1.691012;-1.056293;1.694125;
637946040537191978;1449.826;14;4;4.5;0.1;2.2;3099;1.45208131655373;-0.7070671;2.342648;-0.6819782;2.333154;0.9526281;0.9500003;0.9247147;0.9598783;
637946040591274671;1455.234;14;4;4.5;0.1;2.2;5408;0.832100591715976;0.3762226;0.4663382;0.3330816;0.4657998;-0.7070671;2.342648;-0.6819782;2.333154;
637946040618263115;1457.933;14;4;4;0.1;1.4;800;5;-0.2394138;0.8422151;-0.2434939;0.8180192;0;2.2;0.01146919;2.172079;
637946040638257824;1459.932;14;4;4;0.1;1.4;1999;2.00100050025012;0.4499513;2.036231;0.441981;2.043182;-0.2394138;0.8422151;-0.2434939;0.8180192;
637946040678233977;1463.931;14;4;4;0.1;1.4;3998;1.00050025012506;-0.6062176;1.15;-0.5839599;1.174951;0.4499513;2.036231;0.441981;2.043182;
637946040696238200;1465.73;14;4;4;0.1;1.4;1800;2.22222222222222;0.6893654;1.621554;0.6968006;1.648289;-0.6062176;1.15;-0.5839599;1.174951;
637946040703219841;1466.429;14;4;4;0.1;1.4;699;5.72246065808298;-0.6893655;1.621553;-0.6585148;1.660854;0.6893654;1.621554;0.6968006;1.648289;
637946040711221715;1467.229;14;4;4;0.1;1.4;800;5;0.6062179;1.15;0.6147109;1.159694;-0.6893655;1.621553;-0.6585148;1.660854;
637946040729215944;1469.028;14;4;4;0.1;1.4;1799;2.22345747637576;-0.4499517;2.036231;-0.4643894;1.992586;0.6062179;1.15;0.6147109;1.159694;
637946040738208046;1469.928;14;4;4;0.1;1.4;900;4.44444444444444;0.2394144;0.8422153;0.246755;0.8740222;-0.4499517;2.036231;-0.4643894;1.992586;
637946040763303935;1472.438;14;4;2.5;0.3;1.4;500;5;-0.2394138;0.8422151;-0.1569389;0.8631524;0;2.2;-0.007117343;2.225163;
637946040778307458;1473.937;14;4;2.5;0.3;1.4;1500;1.66666666666667;0.4499513;2.036231;0.3496509;2.011272;-0.2394138;0.8422151;-0.1569389;0.8631524;
637946040784298861;1474.536;14;4;2.5;0.3;1.4;599;4.17362270450751;-0.6062176;1.15;-0.5151447;1.210802;0.4499513;2.036231;0.3496509;2.011272;
637946040804293548;1476.536;14;4;2.5;0.3;1.4;1999;1.25062531265633;0.6893654;1.621554;0.6078733;1.591243;-0.6062176;1.15;-0.5151447;1.210802;
637946040811285190;1477.236;14;4;2.5;0.3;1.4;700;3.57142857142857;-0.6893655;1.621553;-0.6603928;1.666974;0.6893654;1.621554;0.6078733;1.591243;
637946040824278238;1478.535;14;4;2.5;0.3;1.4;1299;1.92455735180908;0.6062179;1.15;0.5484433;1.209212;-0.6893655;1.621553;-0.6603928;1.666974;
637946040830649724;1479.179;14;4;2.5;0.3;1.4;644;3.88198757763975;-0.4499517;2.036231;-0.3357882;1.939018;0.6062179;1.15;0.5484433;1.209212;
637946040843272694;1480.434;14;4;2.5;0.3;1.4;1255;1.99203187250996;0.2394144;0.8422153;0.2371854;0.9374579;-0.4499517;2.036231;-0.3357882;1.939018;
637946040856265748;1481.733;14;4;2;0.6;1.8;599;3.33889816360601;-0.3078177;0.6542765;-0.187094;0.9269969;0;2.4;0.08327556;2.217272;
637946040868268557;1482.933;14;4;2;0.6;1.8;1200;1.66666666666667;0.5785087;2.18944;0.4208355;2.220953;-0.3078177;0.6542765;-0.187094;0.9269969;
637946040892254185;1485.332;14;4;2;0.6;1.8;2399;0.833680700291788;-0.7794226;1.05;-0.6299904;1.138919;0.5785087;2.18944;0.4208355;2.220953;
637946040897625444;1485.876;14;4;2;0.6;1.8;544;3.67647058823529;0.8863269;1.656283;0.6142988;1.565667;-0.7794226;1.05;-0.6299904;1.138919;
637946040914359373;1487.542;14;4;2;0.6;1.8;1666;1.20048019207683;-0.8863271;1.656283;-0.6687629;1.683507;0.8863269;1.656283;0.6142988;1.565667;
637946040919670616;1488.08;14;4;2;0.6;1.8;538;3.71747211895911;0.779423;1.05;0.5037623;1.152084;-0.8863271;1.656283;-0.6687629;1.683507;
637946040925341950;1488.641;14;4;2;0.6;1.8;561;3.5650623885918;-0.5785094;2.18944;-0.3967279;2.154376;0.779423;1.05;0.5037623;1.152084;
637946040943342083;1490.441;14;4;2;0.6;1.8;1800;1.11111111111111;0.3078185;0.6542768;0.2539512;0.9289241;-0.5785094;2.18944;-0.3967279;2.154376;
637946042275733901;1623.678;14;5;2;0.6;1.8;600;3.33333333333333;-0.3078177;0.6542765;-0.2331404;0.8348482;0;2.4;0.01239272;2.281175;
637946042289728866;1625.078;14;5;2;0.6;1.8;1400;1.42857142857143;0.5785087;2.18944;0.4683909;2.177655;-0.3078177;0.6542765;-0.2331404;0.8348482;
637946042308722310;1626.977;14;5;2;0.6;1.8;1899;1.05318588730911;-0.7794226;1.05;-0.6650814;1.139137;0.5785087;2.18944;0.4683909;2.177655;
637946042314713030;1627.577;14;5;2;0.6;1.8;600;3.33333333333333;0.8863269;1.656283;0.8001487;1.720423;-0.7794226;1.05;-0.6650814;1.139137;
637946042327708271;1628.876;14;5;2;0.6;1.8;1300;1.53846153846154;-0.8863271;1.656283;-0.7434274;1.67132;0.8863269;1.656283;0.8001487;1.720423;
637946042341701553;1630.275;14;5;2;0.6;1.8;1399;1.42959256611866;0.779423;1.05;0.6595976;1.165623;-0.8863271;1.656283;-0.7434274;1.67132;
637946042354694601;1631.575;14;5;2;0.6;1.8;1299;1.53964588144727;-0.5785094;2.18944;-0.4260294;2.164277;0.779423;1.05;0.6595976;1.165623;
637946042360696008;1632.175;14;5;2;0.6;1.8;600;3.33333333333333;0.3078185;0.6542768;0.271163;0.8673449;-0.5785094;2.18944;-0.4260294;2.164277;
637946042393790245;1635.484;14;5;1.5;1.1;2;1500;1;-0.3420197;0.5603072;-0.2424327;0.9995592;0;2.5;-0.007337898;2.357828;
637946042399812033;1636.085;14;5;1.5;1.1;2;601;2.49584026622296;0.6427875;2.266045;0.5806128;1.913088;-0.3420197;0.5603072;-0.2424327;0.9995592;
637946042413787605;1637.483;14;5;1.5;1.1;2;1398;1.07296137339056;-0.8660251;0.9999995;-0.748416;1.100612;0.6427875;2.266045;0.5806128;1.913088;
637946042426780649;1638.783;14;5;1.5;1.1;2;1299;1.15473441108545;0.9848077;1.673648;0.5846428;1.632336;-0.8660251;0.9999995;-0.748416;1.100612;
637946042432772053;1639.382;14;5;1.5;1.1;2;599;2.50417362270451;-0.9848078;1.673648;-0.7337642;1.63087;0.9848077;1.673648;0.5846428;1.632336;
637946042443764635;1640.482;14;5;1.5;1.1;2;1100;1.36363636363636;0.8660256;1;0.7438173;1.305902;-0.9848078;1.673648;-0.7337642;1.63087;
637946042449766044;1641.082;14;5;1.5;1.1;2;600;2.5;-0.6427882;2.266044;-0.455544;2.100138;0.8660256;1;0.7438173;1.305902;
637946042463759326;1642.481;14;5;1.5;1.1;2;1399;1.07219442458899;0.3420205;0.5603075;0.2746724;0.9155389;-0.6427882;2.266044;-0.455544;2.100138;
637946042489855448;1645.091;14;5;3;0.2;1.4;1910;1.57068062827225;-0.2394138;0.8422151;-0.2294114;0.9076016;0;2.2;0.03301116;2.140033;
637946042497857325;1645.89;14;5;3;0.2;1.4;799;3.75469336670839;0.4499513;2.036231;0.4584455;1.988576;-0.2394138;0.8422151;-0.2294114;0.9076016;
637946042504848969;1646.59;14;5;3;0.2;1.4;700;4.28571428571429;-0.6062176;1.15;-0.6164133;1.19727;0.4499513;2.036231;0.4584455;1.988576;
637946042513851077;1647.49;14;5;3;0.2;1.4;900;3.33333333333333;0.6893654;1.621554;0.6275546;1.608263;-0.6062176;1.15;-0.6164133;1.19727;
637946042521842952;1648.289;14;5;3;0.2;1.4;800;3.75;-0.6893655;1.621553;-0.7226125;1.653373;0.6893654;1.621554;0.6275546;1.608263;
637946042530845068;1649.189;14;5;3;0.2;1.4;900;3.33333333333333;0.6062179;1.15;0.5451611;1.172279;-0.6893655;1.621553;-0.7226125;1.653373;
637946042536838367;1649.789;14;5;3;0.2;1.4;600;5;-0.4499517;2.036231;-0.3958766;2.039896;0.6062179;1.15;0.5451611;1.172279;
637946042550840299;1651.188;14;5;3;0.2;1.4;1400;2.14285714285714;0.2394144;0.8422153;0.205282;0.9148704;-0.4499517;2.036231;-0.3958766;2.039896;
637946042588813387;1654.986;14;5;3.5;0.2;2;1599;2.18886804252658;-0.3420197;0.5603072;-0.2892939;0.6146171;0;2.5;-0.0103129;2.463642;
637946042607803354;1656.885;14;5;3.5;0.2;2;1899;1.84307530279094;0.6427875;2.266045;0.5927168;2.210826;-0.3420197;0.5603072;-0.2892939;0.6146171;
637946042614913619;1657.596;14;5;3.5;0.2;2;711;4.92264416315049;-0.8660251;0.9999995;-0.8513283;1.032903;0.6427875;2.266045;0.5927168;2.210826;
637946042628913391;1658.995;14;5;3.5;0.2;2;1399;2.50178699070765;0.9848077;1.673648;0.9360763;1.710788;-0.8660251;0.9999995;-0.8513283;1.032903;
637946042637903628;1659.895;14;5;3.5;0.2;2;899;3.89321468298109;-0.9848078;1.673648;-0.9629937;1.729901;0.9848077;1.673648;0.9360763;1.710788;
637946042645903385;1660.695;14;5;3.5;0.2;2;800;4.375;0.8660256;1;0.8140235;1.00038;-0.9848078;1.673648;-0.9629937;1.729901;
637946042653894286;1661.494;14;5;3.5;0.2;2;800;4.375;-0.6427882;2.266044;-0.6087958;2.236125;0.8660256;1;0.8140235;1.00038;
637946042663123396;1662.424;14;5;3.5;0.2;2;930;3.76344086021505;0.3420205;0.5603075;0.349717;0.5009253;-0.6427882;2.266044;-0.6087958;2.236125;
637946042681183414;1664.231;14;5;4.5;0.1;2.2;937;4.8025613660619;-0.3762217;0.4663379;-0.376395;0.5159949;0;2.6;0.009765524;2.568252;
637946042688883333;1664.993;14;5;4.5;0.1;2.2;762;5.90551181102362;0.7070663;2.342649;0.7172608;2.345934;-0.3762217;0.4663379;-0.376395;0.5159949;
637946042695883045;1665.693;14;5;4.5;0.1;2.2;700;6.42857142857143;-0.9526277;0.9499994;-0.9456379;0.9802119;0.7070663;2.342649;0.7172608;2.345934;
637946042721862422;1668.291;14;5;4.5;0.1;2.2;2599;1.73143516737207;1.083289;1.691013;1.073366;1.669868;-0.9526277;0.9499994;-0.9456379;0.9802119;
637946042739971894;1670.101;14;5;4.5;0.1;2.2;1810;2.48618784530387;-1.083289;1.691012;-1.054297;1.672718;1.083289;1.691013;1.073366;1.669868;
637946042748961391;1671.001;14;5;4.5;0.1;2.2;899;5.0055617352614;0.9526281;0.9500003;0.9369313;0.9827328;-1.083289;1.691012;-1.054297;1.672718;
637946042755964014;1671.701;14;5;4.5;0.1;2.2;700;6.42857142857143;-0.7070671;2.342648;-0.6727881;2.340759;0.9526281;0.9500003;0.9369313;0.9827328;
637946042804937167;1676.598;14;5;4.5;0.1;2.2;4898;0.918742343813802;0.3762226;0.4663382;0.3544456;0.5050534;-0.7070671;2.342648;-0.6727881;2.340759;
637946042822931395;1678.398;14;5;2.5;0.3;1.4;500;5;-0.2394138;0.8422151;-0.2485153;0.9342936;0;2.2;0.0568261;2.089273;
637946042835924437;1679.697;14;5;2.5;0.3;1.4;1299;1.92455735180908;0.4499513;2.036231;0.4068558;2.086263;-0.2394138;0.8422151;-0.2485153;0.9342936;
637946042856029157;1681.707;14;5;2.5;0.3;1.4;2010;1.24378109452736;-0.6062176;1.15;-0.5520496;1.158252;0.4499513;2.036231;0.4068558;2.086263;
637946042861020326;1682.207;14;5;2.5;0.3;1.4;500;5;0.6893654;1.621554;0.6244736;1.717964;-0.6062176;1.15;-0.5520496;1.158252;
637946042874013367;1683.506;14;5;2.5;0.3;1.4;1299;1.92455735180908;-0.6893655;1.621553;-0.6883304;1.625536;0.6893654;1.621554;0.6244736;1.717964;
637946042880014779;1684.106;14;5;2.5;0.3;1.4;600;4.16666666666667;0.6062179;1.15;0.5694748;1.22897;-0.6893655;1.621553;-0.6883304;1.625536;
637946042904000408;1686.505;14;5;2.5;0.3;1.4;2399;1.04210087536474;-0.4499517;2.036231;-0.4320894;1.949237;0.6062179;1.15;0.5694748;1.22897;
637946042911002052;1687.204;14;5;2.5;0.3;1.4;700;3.57142857142857;0.2394144;0.8422153;0.3739465;0.9024191;-0.4499517;2.036231;-0.4320894;1.949237;
637946042937988383;1689.903;14;5;4;0.1;1.4;899;4.44938820912125;-0.2394138;0.8422151;-0.1947577;0.8429357;0;2.2;-0.02006898;2.180757;
637946042967975417;1692.902;14;5;4;0.1;1.4;2999;1.33377792597533;0.4499513;2.036231;0.4244619;2.008344;-0.2394138;0.8422151;-0.1947577;0.8429357;
637946042977967763;1693.901;14;5;4;0.1;1.4;999;4.004004004004;-0.6062176;1.15;-0.625834;1.163211;0.4499513;2.036231;0.4244619;2.008344;
637946042984969404;1694.601;14;5;4;0.1;1.4;700;5.71428571428571;0.6893654;1.621554;0.7238437;1.601502;-0.6062176;1.15;-0.625834;1.163211;
637946042997202272;1695.831;14;5;4;0.1;1.4;1230;3.2520325203252;-0.6893655;1.621553;-0.7318499;1.628575;0.6893654;1.621554;0.7238437;1.601502;
637946043025438896;1698.656;14;5;4;0.1;1.4;2825;1.41592920353982;0.6062179;1.15;0.5826487;1.109676;-0.6893655;1.621553;-0.7318499;1.628575;
637946043033440776;1699.456;14;5;4;0.1;1.4;800;5;-0.4499517;2.036231;-0.4120139;2.065717;0.6062179;1.15;0.5826487;1.109676;
637946043041047627;1700.209;14;5;4;0.1;1.4;754;5.30503978779841;0.2394144;0.8422153;0.2521481;0.8630662;-0.4499517;2.036231;-0.4120139;2.065717;
637946044601656098;1856.27;14;6;4;0.1;1.4;3009;1.32934529744101;-0.2394138;0.8422151;-0.227515;0.8786179;0;2.2;-0.006053936;2.196194;
637946044617649850;1857.87;14;6;4;0.1;1.4;1600;2.5;0.4499513;2.036231;0.4726514;2.035432;-0.2394138;0.8422151;-0.227515;0.8786179;
637946044627652199;1858.869;14;6;4;0.1;1.4;1000;4;-0.6062176;1.15;-0.5854965;1.136768;0.4499513;2.036231;0.4726514;2.035432;
637946044635644070;1859.669;14;6;4;0.1;1.4;800;5;0.6893654;1.621554;0.6565466;1.597991;-0.6062176;1.15;-0.5854965;1.136768;
637946044652638053;1861.368;14;6;4;0.1;1.4;1699;2.35432607416127;-0.6893655;1.621553;-0.691662;1.595798;0.6893654;1.621554;0.6565466;1.597991;
637946044669632048;1863.067;14;6;4;0.1;1.4;1699;2.35432607416127;0.6062179;1.15;0.586942;1.152064;-0.6893655;1.621553;-0.691662;1.595798;
637946044686626038;1864.766;14;6;4;0.1;1.4;1700;2.35294117647059;-0.4499517;2.036231;-0.4409984;1.998423;0.6062179;1.15;0.586942;1.152064;
637946044717606727;1867.865;14;6;4;0.1;1.4;3098;1.2911555842479;0.2394144;0.8422153;0.2240817;0.8278843;-0.4499517;2.036231;-0.4409984;1.998423;
637946044732716357;1869.375;14;6;2;0.6;1.8;700;2.85714285714286;-0.3078177;0.6542765;-0.184047;0.8333564;0;2.4;0.06431896;2.278641;
637946044745676600;1870.672;14;6;2;0.6;1.8;1296;1.54320987654321;0.5785087;2.18944;0.4907728;2.136724;-0.3078177;0.6542765;-0.184047;0.8333564;
637946044757698178;1871.874;14;6;2;0.6;1.8;1202;1.66389351081531;-0.7794226;1.05;-0.7321587;1.129724;0.5785087;2.18944;0.4907728;2.136724;
637946044764698015;1872.574;14;6;2;0.6;1.8;700;2.85714285714286;0.8863269;1.656283;0.7335317;1.619965;-0.7794226;1.05;-0.7321587;1.129724;
637946044771767231;1873.274;14;6;2;0.6;1.8;700;2.85714285714286;-0.8863271;1.656283;-0.746868;1.598584;0.8863269;1.656283;0.7335317;1.619965;
637946044778688847;1873.973;14;6;2;0.6;1.8;700;2.85714285714286;0.779423;1.05;0.7011874;1.058889;-0.8863271;1.656283;-0.746868;1.598584;
637946044788797543;1874.984;14;6;2;0.6;1.8;1011;1.9782393669634;-0.5785094;2.18944;-0.4077967;2.054199;0.779423;1.05;0.7011874;1.058889;
637946044799790130;1876.083;14;6;2;0.6;1.8;1099;1.81983621474067;0.3078185;0.6542768;0.2336562;0.9110403;-0.5785094;2.18944;-0.4077967;2.054199;
637946044822780281;1878.382;14;6;3.5;0.2;2;1100;3.18181818181818;-0.3420197;0.5603072;-0.3162789;0.5963038;0;2.5;0.01039614;2.50174;
637946044831007034;1879.212;14;6;3.5;0.2;2;829;4.22195416164053;0.6427875;2.266045;0.6026955;2.351786;-0.3420197;0.5603072;-0.3162789;0.5963038;
637946044838778859;1879.982;14;6;3.5;0.2;2;770;4.54545454545455;-0.8660251;0.9999995;-0.7944142;0.9852555;0.6427875;2.266045;0.6026955;2.351786;
637946044845770498;1880.681;14;6;3.5;0.2;2;700;5;0.9848077;1.673648;0.9752991;1.691702;-0.8660251;0.9999995;-0.7944142;0.9852555;
637946044853772378;1881.481;14;6;3.5;0.2;2;800;4.375;-0.9848078;1.673648;-0.8850374;1.678812;0.9848077;1.673648;0.9752991;1.691702;
637946044871756594;1883.28;14;6;3.5;0.2;2;1799;1.94552529182879;0.8660256;1;0.8409369;0.9716195;-0.9848078;1.673648;-0.8850374;1.678812;
637946044882759178;1884.38;14;6;3.5;0.2;2;1100;3.18181818181818;-0.6427882;2.266044;-0.6155;2.240182;0.8660256;1;0.8409369;0.9716195;
637946044896752460;1885.779;14;6;3.5;0.2;2;1399;2.50178699070765;0.3420205;0.5603075;0.2998395;0.6329145;-0.6427882;2.266044;-0.6155;2.240182;
637946044917747388;1887.878;14;6;2.5;0.3;1.4;1099;2.27479526842584;-0.2394138;0.8422151;-0.2189325;0.9050111;0;2.2;0.06089213;2.098808;
637946044928739965;1888.978;14;6;2.5;0.3;1.4;1100;2.27272727272727;0.4499513;2.036231;0.3991202;1.964002;-0.2394138;0.8422151;-0.2189325;0.9050111;
637946044935841631;1889.688;14;6;2.5;0.3;1.4;710;3.52112676056338;-0.6062176;1.15;-0.4906431;1.134232;0.4499513;2.036231;0.3991202;1.964002;
637946044942843277;1890.388;14;6;2.5;0.3;1.4;700;3.57142857142857;0.6893654;1.621554;0.5637661;1.583129;-0.6062176;1.15;-0.4906431;1.134232;
637946044949834915;1891.088;14;6;2.5;0.3;1.4;700;3.57142857142857;-0.6893655;1.621553;-0.7121434;1.605314;0.6893654;1.621554;0.5637661;1.583129;
637946044964828433;1892.587;14;6;2.5;0.3;1.4;1499;1.66777851901268;0.6062179;1.15;0.5384444;1.17601;-0.6893655;1.621553;-0.7121434;1.605314;
637946044975050830;1893.616;14;6;2.5;0.3;1.4;1030;2.42718446601942;-0.4499517;2.036231;-0.3765927;1.907455;0.6062179;1.15;0.5384444;1.17601;
637946044990814532;1895.186;14;6;2.5;0.3;1.4;1569;1.59337157425112;0.2394144;0.8422153;0.2037717;0.9107429;-0.4499517;2.036231;-0.3765927;1.907455;
637946045004807810;1896.585;14;6;1.5;1.1;2;700;2.14285714285714;-0.3420197;0.5603072;-0.1434064;0.9770397;0;2.5;0.005339576;2.277405;
637946045015810391;1897.685;14;6;1.5;1.1;2;1100;1.36363636363636;0.6427875;2.266045;0.378533;2.017417;-0.3420197;0.5603072;-0.1434064;0.9770397;
637946045029803675;1899.084;14;6;1.5;1.1;2;1399;1.07219442458899;-0.8660251;0.9999995;-0.6671082;1.343568;0.6427875;2.266045;0.378533;2.017417;
637946045038805788;1899.984;14;6;1.5;1.1;2;900;1.66666666666667;0.9848077;1.673648;0.533216;1.637771;-0.8660251;0.9999995;-0.6671082;1.343568;
637946045058810478;1901.985;14;6;1.5;1.1;2;2001;0.749625187406297;-0.9848078;1.673648;-0.624898;1.66188;0.9848077;1.673648;0.533216;1.637771;
637946045064781880;1902.582;14;6;1.5;1.1;2;597;2.51256281407035;0.8660256;1;0.6330411;1.353695;-0.9848078;1.673648;-0.624898;1.66188;
637946045071893550;1903.293;14;6;1.5;1.1;2;711;2.10970464135021;-0.6427882;2.266044;-0.4431649;2.137531;0.8660256;1;0.6330411;1.353695;
637946045084886595;1904.592;14;6;1.5;1.1;2;1299;1.15473441108545;0.3420205;0.5603075;0.2695114;1.02839;-0.6427882;2.266044;-0.4431649;2.137531;
637946045103881055;1906.491;14;6;4.5;0.1;2.2;1099;4.09463148316652;-0.3762217;0.4663379;-0.3856854;0.5041103;0;2.6;0.01915957;2.616424;
637946045118877689;1907.991;14;6;4.5;0.1;2.2;1500;3;0.7070663;2.342649;0.664463;2.349585;-0.3762217;0.4663379;-0.3856854;0.5041103;
637946045129090080;1909.02;14;6;4.5;0.1;2.2;1029;4.3731778425656;-0.9526277;0.9499994;-0.9158383;0.98089;0.7070663;2.342649;0.664463;2.349585;
637946045144863776;1910.589;14;6;4.5;0.1;2.2;1569;2.86806883365201;1.083289;1.691013;1.099071;1.69578;-0.9526277;0.9499994;-0.9158383;0.98089;
637946045155849940;1911.689;14;6;4.5;0.1;2.2;1099;4.09463148316652;-1.083289;1.691012;-1.06437;1.690806;1.083289;1.691013;1.099071;1.69578;
637946045171842610;1913.288;14;6;4.5;0.1;2.2;1599;2.81425891181989;0.9526281;0.9500003;0.9786965;0.9755236;-1.083289;1.691012;-1.06437;1.690806;
637946045182853774;1914.388;14;6;4.5;0.1;2.2;1100;4.09090909090909;-0.7070671;2.342648;-0.6911982;2.318431;0.9526281;0.9500003;0.9786965;0.9755236;
637946045193838654;1915.487;14;6;4.5;0.1;2.2;1099;4.09463148316652;0.3762226;0.4663382;0.3425079;0.4601846;-0.7070671;2.342648;-0.6911982;2.318431;
637946045210942664;1917.197;14;6;3;0.2;1.4;711;4.21940928270042;-0.2394138;0.8422151;-0.2619388;0.8595581;0;2.2;0.01566184;2.180396;
637946045217944304;1917.897;14;6;3;0.2;1.4;700;4.28571428571429;0.4499513;2.036231;0.4707121;2.088409;-0.2394138;0.8422151;-0.2619388;0.8595581;
637946045230927352;1919.197;14;6;3;0.2;1.4;1299;2.3094688221709;-0.6062176;1.15;-0.5232944;1.179716;0.4499513;2.036231;0.4707121;2.088409;
637946045240919697;1920.196;14;6;3;0.2;1.4;999;3.003003003003;0.6893654;1.621554;0.5990725;1.642024;-0.6062176;1.15;-0.5232944;1.179716;
637946045249921808;1921.096;14;6;3;0.2;1.4;900;3.33333333333333;-0.6893655;1.621553;-0.7079562;1.63041;0.6893654;1.621554;0.5990725;1.642024;
637946045258913916;1921.995;14;6;3;0.2;1.4;900;3.33333333333333;0.6062179;1.15;0.5277712;1.193238;-0.6893655;1.621553;-0.7079562;1.63041;
637946045265915560;1922.695;14;6;3;0.2;1.4;700;4.28571428571429;-0.4499517;2.036231;-0.3795885;1.970628;0.6062179;1.15;0.5277712;1.193238;
637946045279908845;1924.094;14;6;3;0.2;1.4;1399;2.14438884917798;0.2394144;0.8422153;0.2312759;0.887579;-0.4499517;2.036231;-0.3795885;1.970628;
637946047070672719;2103.167;14;7;2.5;0.3;1.4;1410;1.77304964539007;-0.2394138;0.8422151;-0.1654962;0.8603668;0;2.2;0.05635438;2.086348;
637946047076664122;2103.767;14;7;2.5;0.3;1.4;600;4.16666666666667;0.4499513;2.036231;0.4407208;2.048006;-0.2394138;0.8422151;-0.1654962;0.8603668;
637946047089647170;2105.066;14;7;2.5;0.3;1.4;1300;1.92307692307692;-0.6062176;1.15;-0.5048611;1.23747;0.4499513;2.036231;0.4407208;2.048006;
637946047095648577;2105.666;14;7;2.5;0.3;1.4;600;4.16666666666667;0.6893654;1.621554;0.7167259;1.663883;-0.6062176;1.15;-0.5048611;1.23747;
637946047108641624;2106.965;14;7;2.5;0.3;1.4;1299;1.92455735180908;-0.6893655;1.621553;-0.6095754;1.628138;0.6893654;1.621554;0.7167259;1.663883;
637946047114633035;2107.565;14;7;2.5;0.3;1.4;600;4.16666666666667;0.6062179;1.15;0.4940805;1.117157;-0.6893655;1.621553;-0.6095754;1.628138;
637946047127626080;2108.864;14;7;2.5;0.3;1.4;1299;1.92455735180908;-0.4499517;2.036231;-0.4227306;2.001463;0.6062179;1.15;0.4940805;1.117157;
637946047134627725;2109.564;14;7;2.5;0.3;1.4;699;3.57653791130186;0.2394144;0.8422153;0.3483319;0.869804;-0.4499517;2.036231;-0.4227306;2.001463;
637946047154612409;2111.563;14;7;3;0.2;1.4;600;5;-0.2394138;0.8422151;-0.1886314;0.9020953;0;2.2;0.001572866;2.202831;
637946047161614047;2112.263;14;7;3;0.2;1.4;699;4.29184549356223;0.4499513;2.036231;0.4343481;2.122261;-0.2394138;0.8422151;-0.1886314;0.9020953;
637946047173606868;2113.462;14;7;3;0.2;1.4;1200;2.5;-0.6062176;1.15;-0.5202389;1.188742;0.4499513;2.036231;0.4343481;2.122261;
637946047180608510;2114.162;14;7;3;0.2;1.4;700;4.28571428571429;0.6893654;1.621554;0.7203764;1.598339;-0.6062176;1.15;-0.5202389;1.188742;
637946047186599913;2114.761;14;7;3;0.2;1.4;600;5;-0.6893655;1.621553;-0.7063794;1.668536;0.6893654;1.621554;0.7203764;1.598339;
637946047200923275;2116.2;14;7;3;0.2;1.4;1439;2.08478109798471;0.6062179;1.15;0.6323932;1.081964;-0.6893655;1.621553;-0.7063794;1.668536;
637946047208705100;2116.971;14;7;3;0.2;1.4;771;3.89105058365759;-0.4499517;2.036231;-0.4148529;1.979945;0.6062179;1.15;0.6323932;1.081964;
637946047215706742;2117.672;14;7;3;0.2;1.4;700;4.28571428571429;0.2394144;0.8422153;0.2397556;0.9279459;-0.4499517;2.036231;-0.4148529;1.979945;
637946047239692372;2120.07;14;7;4.5;0.1;2.2;1000;4.5;-0.3762217;0.4663379;-0.3411946;0.4952447;0;2.6;0.01142598;2.59401;
637946047248684479;2120.97;14;7;4.5;0.1;2.2;900;5;0.7070663;2.342649;0.6756741;2.335262;-0.3762217;0.4663379;-0.3411946;0.4952447;
637946047257676593;2121.869;14;7;4.5;0.1;2.2;900;5;-0.9526277;0.9499994;-0.9716159;0.9917359;0.7070663;2.342649;0.6756741;2.335262;
637946047284672924;2124.569;14;7;4.5;0.1;2.2;2699;1.66728417932568;1.083289;1.691013;1.067871;1.683883;-0.9526277;0.9499994;-0.9716159;0.9917359;
637946047313659723;2127.467;14;7;4.5;0.1;2.2;2898;1.5527950310559;-1.083289;1.691012;-1.0505;1.681893;1.083289;1.691013;1.067871;1.683883;
637946047321651600;2128.267;14;7;4.5;0.1;2.2;800;5.625;0.9526281;0.9500003;0.966976;0.9897497;-1.083289;1.691012;-1.0505;1.681893;
637946047341646292;2130.265;14;7;4.5;0.1;2.2;1999;2.25112556278139;-0.7070671;2.342648;-0.6932397;2.310388;0.9526281;0.9500003;0.966976;0.9897497;
637946047352748896;2131.376;14;7;4.5;0.1;2.2;1110;4.05405405405405;0.3762226;0.4663382;0.4171759;0.4838237;-0.7070671;2.342648;-0.6932397;2.310388;
637946047375962037;2133.705;14;7;3.5;0.2;2;1540;2.27272727272727;-0.3420197;0.5603072;-0.3385009;0.6601366;0;2.5;0.003318383;2.453914;
637946047384734101;2134.575;14;7;3.5;0.2;2;870;4.02298850574713;0.6427875;2.266045;0.6463426;2.272633;-0.3420197;0.5603072;-0.3385009;0.6601366;
637946047394726440;2135.574;14;7;3.5;0.2;2;1000;3.5;-0.8660251;0.9999995;-0.8678337;1.000767;0.6427875;2.266045;0.6463426;2.272633;
637946047403727029;2136.474;14;7;3.5;0.2;2;899;3.89321468298109;0.9848077;1.673648;0.9667579;1.661616;-0.8660251;0.9999995;-0.8678337;1.000767;
637946047412725283;2137.373;14;7;3.5;0.2;2;899;3.89321468298109;-0.9848078;1.673648;-1.034162;1.67397;0.9848077;1.673648;0.9667579;1.661616;
637946047421037463;2138.212;14;7;3.5;0.2;2;839;4.17163289630513;0.8660256;1;0.9288427;0.9724453;-0.9848078;1.673648;-1.034162;1.67397;
637946047434710664;2139.572;14;7;3.5;0.2;2;1360;2.57352941176471;-0.6427882;2.266044;-0.5811867;2.246866;0.8660256;1;0.9288427;0.9724453;
637946047450704424;2141.172;14;7;3.5;0.2;2;1600;2.1875;0.3420205;0.5603075;0.3347864;0.63942;-0.6427882;2.266044;-0.5811867;2.246866;
637946047471699350;2143.271;14;7;1.5;1.1;2;1500;1;-0.3420197;0.5603072;-0.1906061;1.03394;0;2.5;0.07696584;2.321445;
637946047479691220;2144.07;14;7;1.5;1.1;2;799;1.87734668335419;0.6427875;2.266045;0.4739197;2.015405;-0.3420197;0.5603072;-0.1906061;1.03394;
637946047493684505;2145.469;14;7;1.5;1.1;2;1399;1.07219442458899;-0.8660251;0.9999995;-0.6002367;1.295462;0.6427875;2.266045;0.4739197;2.015405;
637946047501676382;2146.269;14;7;1.5;1.1;2;800;1.875;0.9848077;1.673648;0.7193089;1.667744;-0.8660251;0.9999995;-0.6002367;1.295462;
637946047512678960;2147.369;14;7;1.5;1.1;2;1100;1.36363636363636;-0.9848078;1.673648;-0.6688896;1.693695;0.9848077;1.673648;0.7193089;1.667744;
637946047520780862;2148.179;14;7;1.5;1.1;2;811;1.84956843403206;0.8660256;1;0.5046872;1.332416;-0.9848078;1.673648;-0.6688896;1.693695;
637946047528782742;2148.979;14;7;1.5;1.1;2;800;1.875;-0.6427882;2.266044;-0.3898927;2.108945;0.8660256;1;0.5046872;1.332416;
637946047538785092;2149.979;14;7;1.5;1.1;2;1000;1.5;0.3420205;0.5603075;0.3457638;1.004363;-0.6427882;2.266044;-0.3898927;2.108945;
637946047559770011;2152.078;14;7;4;0.1;1.4;1399;2.85918513223731;-0.2394138;0.8422151;-0.2534424;0.8890699;0;2.2;-0.0304901;2.170732;
637946047568762119;2152.977;14;7;4;0.1;1.4;899;4.44938820912125;0.4499513;2.036231;0.4001577;2.031693;-0.2394138;0.8422151;-0.2534424;0.8890699;
637946047577754231;2153.877;14;7;4;0.1;1.4;900;4.44444444444444;-0.6062176;1.15;-0.5981064;1.123548;0.4499513;2.036231;0.4001577;2.031693;
637946047584755870;2154.576;14;7;4;0.1;1.4;699;5.72246065808298;0.6893654;1.621554;0.710127;1.653788;-0.6062176;1.15;-0.5981064;1.123548;
637946047595968494;2155.705;14;7;4;0.1;1.4;1129;3.54295837023915;-0.6893655;1.621553;-0.6991022;1.576482;0.6893654;1.621554;0.710127;1.653788;
637946047614742910;2157.575;14;7;4;0.1;1.4;1870;2.13903743315508;0.6062179;1.15;0.5676364;1.178967;-0.6893655;1.621553;-0.6991022;1.576482;
637946047622734785;2158.375;14;7;4;0.1;1.4;800;5;-0.4499517;2.036231;-0.4375401;1.996406;0.6062179;1.15;0.5676364;1.178967;
637946047630736662;2159.174;14;7;4;0.1;1.4;800;5;0.2394144;0.8422153;0.2743697;0.8616827;-0.4499517;2.036231;-0.4375401;1.996406;
637946047646730415;2160.774;14;7;2;0.6;1.8;1100;1.81818181818182;-0.3078177;0.6542765;-0.2413817;0.7893506;0;2.4;-0.01493148;2.246906;
637946047653722052;2161.473;14;7;2;0.6;1.8;699;2.86123032904149;0.5785087;2.18944;0.5259631;2.09385;-0.3078177;0.6542765;-0.2413817;0.7893506;
637946047659723460;2162.073;14;7;2;0.6;1.8;600;3.33333333333333;-0.7794226;1.05;-0.6556906;1.267658;0.5785087;2.18944;0.5259631;2.09385;
637946047666715100;2162.773;14;7;2;0.6;1.8;700;2.85714285714286;0.8863269;1.656283;0.8256623;1.713732;-0.7794226;1.05;-0.6556906;1.267658;
637946047675827237;2163.683;14;7;2;0.6;1.8;911;2.1953896816685;-0.8863271;1.656283;-0.6324462;1.703174;0.8863269;1.656283;0.8256623;1.713732;
637946047681818645;2164.283;14;7;2;0.6;1.8;600;3.33333333333333;0.779423;1.05;0.5799631;1.2099;-0.8863271;1.656283;-0.6324462;1.703174;
637946047689820520;2165.083;14;7;2;0.6;1.8;800;2.5;-0.5785094;2.18944;-0.493034;2.198563;0.779423;1.05;0.5799631;1.2099;
637946047695811926;2165.682;14;7;2;0.6;1.8;600;3.33333333333333;0.3078185;0.6542768;0.1593267;0.8988578;-0.5785094;2.18944;-0.493034;2.198563;
