637946158783551174;352.8157;15;0;1.5;1.1;2;3310;0.453172205438066;-0.3420197;0.5603072;-0.1736534;0.9007729;0;2.5;-0.03442921;2.621403;
637946158803543602;354.8149;15;0;1.5;1.1;2;1999;0.750375187593797;0.6427875;2.266045;0.4711376;2.174275;-0.3420197;0.5603072;-0.1736534;0.9007729;
637946158920588101;366.5206;15;0;1.5;1.1;2;11706;0.128139415684264;-0.8660251;0.9999995;-0.6377575;1.124465;0.6427875;2.266045;0.4711376;2.174275;
637946158933581010;367.8197;15;0;1.5;1.1;2;1299;1.15473441108545;0.9848077;1.673648;0.6613566;1.737669;-0.8660251;0.9999995;-0.6377575;1.124465;
637946158946563915;369.1191;15;0;1.5;1.1;2;1299;1.15473441108545;-0.9848078;1.673648;-0.7279586;1.690265;0.9848077;1.673648;0.6613566;1.737669;
637946158994654693;373.9281;15;0;1.5;1.1;2;4809;0.311915159076731;0.8660256;1;0.7061505;0.992636;-0.9848078;1.673648;-0.7279586;1.690265;
637946159046636336;379.1259;15;0;1.5;1.1;2;5198;0.288572527895344;-0.6427882;2.266044;-0.3540364;2.178874;0.8660256;1;0.7061505;0.992636;
637946159078623503;382.3244;15;0;1.5;1.1;2;3198;0.469043151969981;0.3420205;0.5603075;0.4141959;0.8660539;-0.6427882;2.266044;-0.3540364;2.178874;
637946159250651466;399.5274;15;0;3;0.2;1.4;6697;0.447961773928625;-0.2394138;0.8422151;-0.2344661;0.8779988;0;2.2;0.01317543;2.154773;
637946159273636611;401.8263;15;0;3;0.2;1.4;2299;1.30491518051327;0.4499513;2.036231;0.4498989;2.055882;-0.2394138;0.8422151;-0.2344661;0.8779988;
637946159315736039;406.0356;15;0;3;0.2;1.4;4209;0.712758374910905;-0.6062176;1.15;-0.5650432;1.075977;0.4499513;2.036231;0.4498989;2.055882;
637946159428791363;417.3413;15;0;3;0.2;1.4;11306;0.265345834070405;0.6893654;1.621554;0.6649049;1.60811;-0.6062176;1.15;-0.5650432;1.075977;
637946159441784278;418.6407;15;0;3;0.2;1.4;1299;2.3094688221709;-0.6893655;1.621553;-0.7237211;1.682589;0.6893654;1.621554;0.6649049;1.60811;
637946159452776739;419.7402;15;0;3;0.2;1.4;1100;2.72727272727273;0.6062179;1.15;0.5475454;1.223405;-0.6893655;1.621553;-0.7237211;1.682589;
637946159505758607;425.0379;15;0;3;0.2;1.4;5298;0.566251415628539;-0.4499517;2.036231;-0.4396316;1.939111;0.6062179;1.15;0.5475454;1.223405;
637946159521752190;426.6371;15;0;3;0.2;1.4;1599;1.87617260787993;0.2394144;0.8422153;0.2700944;0.9373919;-0.4499517;2.036231;-0.4396316;1.939111;
637946159678790521;442.341;15;0;4.5;0.1;2.2;13805;0.325968851865266;-0.3762217;0.4663379;-0.3636478;0.4908547;0;2.6;0.02686933;2.578021;
637946159822832786;456.7452;15;0;4.5;0.1;2.2;14404;0.312413218550403;0.7070663;2.342649;0.7125723;2.357879;-0.3762217;0.4663379;-0.3636478;0.4908547;
637946159865812414;461.0435;15;0;4.5;0.1;2.2;4298;1.04699860400186;-0.9526277;0.9499994;-0.9491103;0.9583193;0.7070663;2.342649;0.7125723;2.357879;
637946159881916023;462.6534;15;0;4.5;0.1;2.2;1610;2.79503105590062;1.083289;1.691013;1.037873;1.698973;-0.9526277;0.9499994;-0.9491103;0.9583193;
637946159905903493;465.0524;15;0;4.5;0.1;2.2;2399;1.87578157565652;-1.083289;1.691012;-1.073277;1.735357;1.083289;1.691013;1.037873;1.698973;
637946159933889762;467.8512;15;0;4.5;0.1;2.2;2799;1.60771704180064;0.9526281;0.9500003;0.9583947;0.9631684;-1.083289;1.691012;-1.073277;1.735357;
637946159962878468;470.7499;15;0;4.5;0.1;2.2;2899;1.55225939979303;-0.7070671;2.342648;-0.7308952;2.305772;0.9526281;0.9500003;0.9583947;0.9631684;
637946159982871857;472.7492;15;0;4.5;0.1;2.2;1999;2.25112556278139;0.3762226;0.4663382;0.3975765;0.4843253;-0.7070671;2.342648;-0.7308952;2.305772;
637946160015848582;476.0476;15;0;3.5;0.2;2;1999;1.75087543771886;-0.3420197;0.5603072;-0.3010001;0.6258041;0;2.5;-0.005934883;2.526788;
637946160046948255;479.1571;15;0;3.5;0.2;2;3110;1.12540192926045;0.6427875;2.266045;0.6804443;2.254243;-0.3420197;0.5603072;-0.3010001;0.6258041;
637946160062935969;480.7564;15;0;3.5;0.2;2;1599;2.18886804252658;-0.8660251;0.9999995;-0.8356915;1.057042;0.6427875;2.266045;0.6804443;2.254243;
637946160076158933;482.0853;15;0;3.5;0.2;2;1329;2.63355906696764;0.9848077;1.673648;0.8913077;1.696301;-0.8660251;0.9999995;-0.8356915;1.057042;
637946160088931792;483.3552;15;0;3.5;0.2;2;1270;2.75590551181102;-0.9848078;1.673648;-0.955909;1.651552;0.9848077;1.673648;0.8913077;1.696301;
637946160100924483;484.5547;15;0;3.5;0.2;2;1199;2.91909924937448;0.8660256;1;0.7898485;1.00811;-0.9848078;1.673648;-0.955909;1.651552;
637946160128910749;487.3531;15;0;3.5;0.2;2;2798;1.25089349535382;-0.6427882;2.266044;-0.5741767;2.23276;0.8660256;1;0.7898485;1.00811;
637946160141903658;488.6525;15;0;3.5;0.2;2;1299;2.69438029253272;0.3420205;0.5603075;0.3451077;0.6334332;-0.6427882;2.266044;-0.5741767;2.23276;
637946160188994208;493.3618;15;0;4;0.1;1.4;2610;1.53256704980843;-0.2394138;0.8422151;-0.2312077;0.8686557;0;2.2;0.01127349;2.224245;
637946160216980478;496.1603;15;0;4;0.1;1.4;2798;1.42959256611866;0.4499513;2.036231;0.4486114;2.039295;-0.2394138;0.8422151;-0.2312077;0.8686557;
637946160263961000;500.858;15;0;4;0.1;1.4;4698;0.851426138782461;-0.6062176;1.15;-0.6055051;1.197981;0.4499513;2.036231;0.4486114;2.039295;
637946160298938835;504.3567;15;0;4;0.1;1.4;3499;1.14318376679051;0.6893654;1.621554;0.680575;1.644144;-0.6062176;1.15;-0.6055051;1.197981;
637946160358026479;510.265;15;0;4;0.1;1.4;5908;0.677048070412999;-0.6893655;1.621553;-0.6647518;1.638252;0.6893654;1.621554;0.680575;1.644144;
637946160448983423;519.3604;15;0;4;0.1;1.4;9095;0.439802089059923;0.6062179;1.15;0.6025805;1.173405;-0.6893655;1.621553;-0.6647518;1.638252;
637946160511057334;525.5686;15;0;4;0.1;1.4;6208;0.644329896907217;-0.4499517;2.036231;-0.4494038;1.996595;0.6062179;1.15;0.6025805;1.173405;
637946160580032788;532.4656;15;0;4;0.1;1.4;6897;0.579962302450341;0.2394144;0.8422153;0.2445459;0.8839414;-0.4499517;2.036231;-0.4494038;1.996595;
637946160734179531;547.8806;15;0;2.5;0.3;1.4;1499;1.66777851901268;-0.2394138;0.8422151;-0.1448515;0.8745089;0;2.2;0.04288062;2.312557;
637946160747182448;549.1801;15;0;2.5;0.3;1.4;1299;1.92455735180908;0.4499513;2.036231;0.4105593;2.119015;-0.2394138;0.8422151;-0.1448515;0.8745089;
637946160760165352;550.4794;15;0;2.5;0.3;1.4;1299;1.92455735180908;-0.6062176;1.15;-0.5262302;1.245001;0.4499513;2.036231;0.4105593;2.119015;
637946160787161402;553.178;15;0;2.5;0.3;1.4;2699;0.926268988514265;0.6893654;1.621554;0.6284277;1.726185;-0.6062176;1.15;-0.5262302;1.245001;
637946160804155210;554.8776;15;0;2.5;0.3;1.4;1700;1.47058823529412;-0.6893655;1.621553;-0.752162;1.584625;0.6893654;1.621554;0.6284277;1.726185;
637946160822139236;556.6765;15;0;2.5;0.3;1.4;1799;1.38966092273485;0.6062179;1.15;0.5776653;1.289577;-0.6893655;1.621553;-0.752162;1.584625;
637946160840133269;558.4758;15;0;2.5;0.3;1.4;1799;1.38966092273485;-0.4499517;2.036231;-0.4135955;2.053588;0.6062179;1.15;0.5776653;1.289577;
637946160906218071;565.0839;15;0;2.5;0.3;1.4;6608;0.378329297820823;0.2394144;0.8422153;0.2609349;0.9904075;-0.4499517;2.036231;-0.4135955;2.053588;
637946160942196124;568.6823;15;0;2;0.6;1.8;1900;1.05263157894737;-0.3078177;0.6542765;-0.199037;0.8815141;0;2.4;0.04039072;2.501828;
637946160981184866;572.5805;15;0;2;0.6;1.8;3898;0.513083632632119;0.5785087;2.18944;0.5233309;2.242876;-0.3078177;0.6542765;-0.199037;0.8815141;
637946161055251699;579.9879;15;0;2;0.6;1.8;7407;0.270014850816795;-0.7794226;1.05;-0.6710477;1.202412;0.5785087;2.18944;0.5233309;2.242876;
637946161065475554;581.0176;15;0;2;0.6;1.8;1030;1.94174757281553;0.8863269;1.656283;0.5964177;1.73343;-0.7794226;1.05;-0.6710477;1.202412;
637946161233393901;597.8018;15;0;2;0.6;1.8;16784;0.119161105815062;-0.8863271;1.656283;-0.7383077;1.802608;0.8863269;1.656283;0.5964177;1.73343;
637946161374445504;611.9072;15;0;2;0.6;1.8;14105;0.141793690180787;0.779423;1.05;0.7581827;1.206325;-0.8863271;1.656283;-0.7383077;1.802608;
637946161384447747;612.9068;15;0;2;0.6;1.8;1000;2;-0.5785094;2.18944;-0.477671;2.081411;0.779423;1.05;0.7581827;1.206325;
637946161516480501;626.1108;15;0;2;0.6;1.8;13204;0.151469251741896;0.3078185;0.6542768;0.3172342;0.8425813;-0.5785094;2.18944;-0.477671;2.081411;
637946162642867857;738.7473;15;1;3;0.2;1.4;1300;2.30769230769231;-0.2394138;0.8422151;-0.1962089;0.9278308;0;2.2;-0.02499724;2.161962;
637946162695837818;744.045;15;1;3;0.2;1.4;5298;0.566251415628539;0.4499513;2.036231;0.4443001;1.985755;-0.2394138;0.8422151;-0.1962089;0.9278308;
637946162725938416;747.055;15;1;3;0.2;1.4;3010;0.996677740863787;-0.6062176;1.15;-0.5812311;1.109154;0.4499513;2.036231;0.4443001;1.985755;
637946162737931112;748.2546;15;1;3;0.2;1.4;1200;2.5;0.6893654;1.621554;0.6010155;1.615472;-0.6062176;1.15;-0.5812311;1.109154;
637946162752924464;749.7535;15;1;3;0.2;1.4;1499;2.00133422281521;-0.6893655;1.621553;-0.6645978;1.626209;0.6893654;1.621554;0.6010155;1.615472;
637946162779910508;752.4522;15;1;3;0.2;1.4;2699;1.11152278621712;0.6062179;1.15;0.5917865;1.200843;-0.6893655;1.621553;-0.6645978;1.626209;
637946162793903643;753.8516;15;1;3;0.2;1.4;1399;2.14438884917798;-0.4499517;2.036231;-0.3757921;2.013136;0.6062179;1.15;0.5917865;1.200843;
637946162804906107;754.9512;15;1;3;0.2;1.4;1100;2.72727272727273;0.2394144;0.8422153;0.2401897;0.7955562;-0.4499517;2.036231;-0.3757921;2.013136;
637946162828891481;757.35;15;1;2;0.6;1.8;1299;1.53964588144727;-0.3078177;0.6542765;-0.4251808;0.9303627;0;2.4;0.05299498;2.310651;
637946162838883718;758.3494;15;1;2;0.6;1.8;999;2.002002002002;0.5785087;2.18944;0.4366705;2.181269;-0.3078177;0.6542765;-0.4251808;0.9303627;
637946162858878196;760.3486;15;1;2;0.6;1.8;1999;1.00050025012506;-0.7794226;1.05;-0.6322318;1.108704;0.5785087;2.18944;0.4366705;2.181269;
637946162872911340;761.7524;15;1;2;0.6;1.8;1404;1.42450142450142;0.8863269;1.656283;0.7800551;1.651422;-0.7794226;1.05;-0.6322318;1.108704;
637946162883973822;762.8586;15;1;2;0.6;1.8;1106;1.80831826401447;-0.8863271;1.656283;-0.6569141;1.714835;0.8863269;1.656283;0.7800551;1.651422;
637946162893966056;763.8579;15;1;2;0.6;1.8;999;2.002002002002;0.779423;1.05;0.4864932;1.112479;-0.8863271;1.656283;-0.6569141;1.714835;
637946162908959419;765.3574;15;1;2;0.6;1.8;1499;1.33422281521014;-0.5785094;2.18944;-0.4696586;2.294716;0.779423;1.05;0.4864932;1.112479;
637946162927033464;767.1567;15;1;2;0.6;1.8;1799;1.11172873818788;0.3078185;0.6542768;0.2788041;0.7679646;-0.5785094;2.18944;-0.4696586;2.294716;
637946162979931754;772.454;15;1;2.5;0.3;1.4;3498;0.714694110920526;-0.2394138;0.8422151;-0.2449077;0.9164224;0;2.2;-0.04531351;2.197995;
637946163019019742;776.3632;15;1;2.5;0.3;1.4;3909;0.639549756971092;0.4499513;2.036231;0.4558367;2.00721;-0.2394138;0.8422151;-0.2449077;0.9164224;
637946163031015576;777.5627;15;1;2.5;0.3;1.4;1200;2.08333333333333;-0.6062176;1.15;-0.6109943;1.258407;0.4499513;2.036231;0.4558367;2.00721;
637946163041015266;778.5625;15;1;2.5;0.3;1.4;1000;2.5;0.6893654;1.621554;0.6340707;1.598744;-0.6062176;1.15;-0.6109943;1.258407;
637946163053003167;779.7616;15;1;2.5;0.3;1.4;1199;2.08507089241034;-0.6893655;1.621553;-0.6590038;1.607318;0.6893654;1.621554;0.6340707;1.598744;
637946163065003033;780.9611;15;1;2.5;0.3;1.4;1199;2.08507089241034;0.6062179;1.15;0.6013148;1.228993;-0.6893655;1.621553;-0.6590038;1.607318;
637946163087995565;783.2601;15;1;2.5;0.3;1.4;2299;1.08742931709439;-0.4499517;2.036231;-0.4248345;1.997809;0.6062179;1.15;0.6013148;1.228993;
637946163099988252;784.4597;15;1;2.5;0.3;1.4;1200;2.08333333333333;0.2394144;0.8422153;0.1434405;0.8877517;-0.4499517;2.036231;-0.4248345;1.997809;
637946163143077904;788.7688;15;1;4.5;0.1;2.2;2010;2.23880597014925;-0.3762217;0.4663379;-0.3468193;0.4614552;0;2.6;0.03333988;2.593705;
637946163160311763;790.4987;15;1;4.5;0.1;2.2;1730;2.60115606936416;0.7070663;2.342649;0.6728595;2.309364;-0.3762217;0.4663379;-0.3468193;0.4614552;
637946163184057081;792.8666;15;1;4.5;0.1;2.2;2368;1.90033783783784;-0.9526277;0.9499994;-0.930468;0.9921926;0.7070663;2.342649;0.6728595;2.309364;
637946163247031192;799.1636;15;1;4.5;0.1;2.2;6297;0.714626012386851;1.083289;1.691013;1.066646;1.691463;-0.9526277;0.9499994;-0.930468;0.9921926;
637946163312105766;805.6719;15;1;4.5;0.1;2.2;6508;0.691456668715427;-1.083289;1.691012;-1.043483;1.681504;1.083289;1.691013;1.066646;1.691463;
637946163331100020;807.5712;15;1;4.5;0.1;2.2;1899;2.3696682464455;0.9526281;0.9500003;0.9150683;0.9372609;-1.083289;1.691012;-1.043483;1.681504;
637946163358086071;810.2698;15;1;4.5;0.1;2.2;2699;1.66728417932568;-0.7070671;2.342648;-0.6864828;2.35191;0.9526281;0.9500003;0.9150683;0.9372609;
637946163376085185;812.0689;15;1;4.5;0.1;2.2;1799;2.50138966092273;0.3762226;0.4663382;0.3474731;0.4774488;-0.7070671;2.342648;-0.6864828;2.35191;
637946163398075024;814.2681;15;1;1.5;1.1;2;1200;1.25;-0.3420197;0.5603072;-0.4226072;1.099572;0;2.5;-0.005079097;2.17186;
637946163409067489;815.3677;15;1;1.5;1.1;2;1100;1.36363636363636;0.6427875;2.266045;0.3308081;2.132004;-0.3420197;0.5603072;-0.4226072;1.099572;
637946163417059282;816.1672;15;1;1.5;1.1;2;799;1.87734668335419;-0.8660251;0.9999995;-0.4841343;1.384591;0.6427875;2.266045;0.3308081;2.132004;
637946163429170260;817.3774;15;1;1.5;1.1;2;1210;1.2396694214876;0.9848077;1.673648;0.5775206;1.81715;-0.8660251;0.9999995;-0.4841343;1.384591;
637946163437142066;818.1744;15;1;1.5;1.1;2;797;1.88205771643664;-0.9848078;1.673648;-0.5094036;1.71944;0.9848077;1.673648;0.5775206;1.81715;
637946163446159027;819.0765;15;1;1.5;1.1;2;902;1.6629711751663;0.8660256;1;0.6267006;1.274036;-0.9848078;1.673648;-0.5094036;1.71944;
637946163455156686;819.9764;15;1;1.5;1.1;2;900;1.66666666666667;-0.6427882;2.266044;-0.3013408;2.051052;0.8660256;1;0.6267006;1.274036;
637946163465453642;821.0136;15;1;1.5;1.1;2;1037;1.44648023143684;0.3420205;0.5603075;0.147195;1.074114;-0.6427882;2.266044;-0.3013408;2.051052;
637946163495140290;823.9745;15;1;3.5;0.2;2;1699;2.06003531489111;-0.3420197;0.5603072;-0.2573617;0.6017449;0;2.5;0.009507412;2.433828;
637946163520125885;826.4734;15;1;3.5;0.2;2;2499;1.40056022408964;0.6427875;2.266045;0.5769483;2.245892;-0.3420197;0.5603072;-0.2573617;0.6017449;
637946163543531124;828.8215;15;1;3.5;0.2;2;2348;1.49063032367973;-0.8660251;0.9999995;-0.7710496;0.9695463;0.6427875;2.266045;0.5769483;2.245892;
637946163561215090;830.5826;15;1;3.5;0.2;2;1761;1.98750709823964;0.9848077;1.673648;1.02539;1.610665;-0.8660251;0.9999995;-0.7710496;0.9695463;
637946163575208225;831.982;15;1;3.5;0.2;2;1399;2.50178699070765;-0.9848078;1.673648;-0.9641338;1.677509;0.9848077;1.673648;1.02539;1.610665;
637946163627599957;837.2281;15;1;3.5;0.2;2;5246;0.667174990468929;0.8660256;1;0.7872265;1.056281;-0.9848078;1.673648;-0.9641338;1.677509;
637946163642293253;838.6898;15;1;3.5;0.2;2;1462;2.39398084815321;-0.6427882;2.266044;-0.6875499;2.233156;0.8660256;1;0.7872265;1.056281;
637946163655526218;840.0203;15;1;3.5;0.2;2;1331;2.62960180315552;0.3420205;0.5603075;0.2845805;0.6407757;-0.6427882;2.266044;-0.6875499;2.233156;
637946163693264675;843.7876;15;1;4;0.1;1.4;2099;1.90566936636494;-0.2394138;0.8422151;-0.2164504;0.8299183;0;2.2;-0.007907246;2.200779;
637946163706257577;845.087;15;1;4;0.1;1.4;1299;3.07929176289453;0.4499513;2.036231;0.4193027;2.049991;-0.2394138;0.8422151;-0.2164504;0.8299183;
637946163732248455;847.6855;15;1;4;0.1;1.4;2599;1.5390534821085;-0.6062176;1.15;-0.5905147;1.193651;0.4499513;2.036231;0.4193027;2.049991;
637946163772334744;851.6949;15;1;4;0.1;1.4;4009;0.997755051134946;0.6893654;1.621554;0.6675068;1.612916;-0.6062176;1.15;-0.5905147;1.193651;
637946163791324997;853.5939;15;1;4;0.1;1.4;1899;2.10637177461822;-0.6893655;1.621553;-0.6751558;1.60394;0.6893654;1.621554;0.6675068;1.612916;
637946163812315881;855.6927;15;1;4;0.1;1.4;2099;1.90566936636494;0.6062179;1.15;0.6098366;1.158123;-0.6893655;1.621553;-0.6751558;1.60394;
637946163828316502;857.2924;15;1;4;0.1;1.4;1600;2.5;-0.4499517;2.036231;-0.4077297;2.040631;0.6062179;1.15;0.6098366;1.158123;
637946163847306382;859.1913;15;1;4;0.1;1.4;1899;2.10637177461822;0.2394144;0.8422153;0.2424204;0.8694052;-0.4499517;2.036231;-0.4077297;2.040631;
637946164647718175;939.2319;15;2;2;0.6;1.8;4009;0.498877525567473;-0.3078177;0.6542765;-0.2399782;0.91818;0;2.4;-0.004951051;2.226698;
637946164661701312;940.6312;15;2;2;0.6;1.8;1399;1.42959256611866;0.5785087;2.18944;0.4709449;2.247875;-0.3078177;0.6542765;-0.2399782;0.91818;
637946164682696012;942.7306;15;2;2;0.6;1.8;2099;0.952834683182468;-0.7794226;1.05;-0.6209236;1.273754;0.5785087;2.18944;0.4709449;2.247875;
637946164693688473;943.8298;15;2;2;0.6;1.8;1099;1.81983621474067;0.8863269;1.656283;0.6635089;1.680836;-0.7794226;1.05;-0.6209236;1.273754;
637946164704680939;944.9291;15;2;2;0.6;1.8;1099;1.81983621474067;-0.8863271;1.656283;-0.6937159;1.660459;0.8863269;1.656283;0.6635089;1.680836;
637946164714683176;945.9289;15;2;2;0.6;1.8;1000;2;0.779423;1.05;0.6083835;0.9304776;-0.8863271;1.656283;-0.6937159;1.660459;
637946164724675416;946.9283;15;2;2;0.6;1.8;999;2.002002002002;-0.5785094;2.18944;-0.5010908;2.182855;0.779423;1.05;0.6083835;0.9304776;
637946164754662129;949.927;15;2;2;0.6;1.8;2999;0.666888962987663;0.3078185;0.6542768;0.1696414;0.8422551;-0.5785094;2.18944;-0.5010908;2.182855;
637946164794751112;953.936;15;2;3.5;0.2;2;1899;1.84307530279094;-0.3420197;0.5603072;-0.271263;0.6207685;0;2.5;0.0120557;2.435409;
637946164822742265;956.7348;15;2;3.5;0.2;2;2799;1.25044658806717;0.6427875;2.266045;0.6164095;2.300324;-0.3420197;0.5603072;-0.271263;0.6207685;
637946164836733048;958.1342;15;2;3.5;0.2;2;1399;2.50178699070765;-0.8660251;0.9999995;-0.8267487;1.085404;0.6427875;2.266045;0.6164095;2.300324;
637946164849726546;959.4337;15;2;3.5;0.2;2;1299;2.69438029253272;0.9848077;1.673648;0.945698;1.734267;-0.8660251;0.9999995;-0.8267487;1.085404;
637946164871721473;961.6326;15;2;3.5;0.2;2;2199;1.59163256025466;-0.9848078;1.673648;-0.9211208;1.667901;0.9848077;1.673648;0.945698;1.734267;
637946164888715282;963.3322;15;2;3.5;0.2;2;1700;2.05882352941176;0.8660256;1;0.8114452;0.9731292;-0.9848078;1.673648;-0.9211208;1.667901;
637946164900697965;964.5313;15;2;3.5;0.2;2;1199;2.91909924937448;-0.6427882;2.266044;-0.5934062;2.293452;0.8660256;1;0.8114452;0.9731292;
637946164920792465;966.5416;15;2;3.5;0.2;2;2010;1.74129353233831;0.3420205;0.5603075;0.3090945;0.6510298;-0.6427882;2.266044;-0.5934062;2.293452;
637946164951779407;969.6398;15;2;2.5;0.3;1.4;1799;1.38966092273485;-0.2394138;0.8422151;-0.1321092;0.8669595;0;2.2;0.09342049;2.206318;
637946164962771869;970.7394;15;2;2.5;0.3;1.4;1100;2.27272727272727;0.4499513;2.036231;0.4474831;2.126159;-0.2394138;0.8422151;-0.1321092;0.8669595;
637946164985757018;973.0383;15;2;2.5;0.3;1.4;2299;1.08742931709439;-0.6062176;1.15;-0.5190527;1.143475;0.4499513;2.036231;0.4474831;2.126159;
637946164997979760;974.2679;15;2;2.5;0.3;1.4;1230;2.03252032520325;0.6893654;1.621554;0.5885932;1.732634;-0.6062176;1.15;-0.5190527;1.143475;
637946165017744175;976.2368;15;2;2.5;0.3;1.4;1969;1.26968004062976;-0.6893655;1.621553;-0.6477531;1.571401;0.6893654;1.621554;0.5885932;1.732634;
637946165036738438;978.1359;15;2;2.5;0.3;1.4;1899;1.31648235913639;0.6062179;1.15;0.5583745;1.142103;-0.6893655;1.621553;-0.6477531;1.571401;
637946165051841821;979.6462;15;2;2.5;0.3;1.4;1510;1.65562913907285;-0.4499517;2.036231;-0.4651484;2.035303;0.6062179;1.15;0.5583745;1.142103;
637946165066835180;981.1456;15;2;2.5;0.3;1.4;1499;1.66777851901268;0.2394144;0.8422153;0.1731143;0.9725941;-0.4499517;2.036231;-0.4651484;2.035303;
637946165132803011;987.7428;15;2;4;0.1;1.4;3799;1.05290866017373;-0.2394138;0.8422151;-0.2270222;0.8496592;0;2.2;-0.003275825;2.190617;
637946165166789640;991.1408;15;2;4;0.1;1.4;3398;1.17716303708064;0.4499513;2.036231;0.4324476;2.005167;-0.2394138;0.8422151;-0.2270222;0.8496592;
637946165180891507;992.5514;15;2;4;0.1;1.4;1411;2.83486888731396;-0.6062176;1.15;-0.5917745;1.180846;0.4499513;2.036231;0.4324476;2.005167;
637946165222877162;996.7496;15;2;4;0.1;1.4;4198;0.952834683182468;0.6893654;1.621554;0.6615154;1.640332;-0.6062176;1.15;-0.5917745;1.180846;
637946165239867209;998.4489;15;2;4;0.1;1.4;1699;2.35432607416127;-0.6893655;1.621553;-0.664517;1.614072;0.6893654;1.621554;0.6615154;1.640332;
637946165256868569;1000.149;15;2;4;0.1;1.4;1701;2.35155790711346;0.6062179;1.15;0.6045846;1.17235;-0.6893655;1.621553;-0.664517;1.614072;
637946165279843715;1002.447;15;2;4;0.1;1.4;2297;1.74140182847192;-0.4499517;2.036231;-0.4440731;2.018988;0.6062179;1.15;0.6045846;1.17235;
637946165297837745;1004.246;15;2;4;0.1;1.4;1799;2.22345747637576;0.2394144;0.8422153;0.2317497;0.8249358;-0.4499517;2.036231;-0.4440731;2.018988;
637946165332935613;1007.756;15;2;3;0.2;1.4;1399;2.14438884917798;-0.2394138;0.8422151;-0.2646033;0.8964112;0;2.2;-0.0266914;2.191803;
637946165343928070;1008.855;15;2;3;0.2;1.4;1099;2.72975432211101;0.4499513;2.036231;0.4037938;2.090993;-0.2394138;0.8422151;-0.2646033;0.8964112;
637946165361922099;1010.654;15;2;3;0.2;1.4;1799;1.66759310728182;-0.6062176;1.15;-0.5747373;1.215228;0.4499513;2.036231;0.4037938;2.090993;
637946165379906128;1012.453;15;2;3;0.2;1.4;1799;1.66759310728182;0.6893654;1.621554;0.602519;1.666878;-0.6062176;1.15;-0.5747373;1.215228;
637946165397930165;1014.255;15;2;3;0.2;1.4;1802;1.66481687014428;-0.6893655;1.621553;-0.6690869;1.712184;0.6893654;1.621554;0.602519;1.666878;
637946165422885758;1016.751;15;2;3;0.2;1.4;2496;1.20192307692308;0.6062179;1.15;0.598415;1.09027;-0.6893655;1.621553;-0.6690869;1.712184;
637946165442960254;1018.751;15;2;3;0.2;1.4;2000;1.5;-0.4499517;2.036231;-0.4146526;2.065221;0.6062179;1.15;0.598415;1.09027;
637946165457883597;1020.25;15;2;3;0.2;1.4;1499;2.00133422281521;0.2394144;0.8422153;0.2122015;0.8948491;-0.4499517;2.036231;-0.4146526;2.065221;
637946165503963919;1024.859;15;2;4.5;0.1;2.2;2609;1.72479877347643;-0.3762217;0.4663379;-0.3581766;0.4468503;0;2.6;0.01037884;2.581645;
637946165539941977;1028.457;15;2;4.5;0.1;2.2;3598;1.25069483046137;0.7070663;2.342649;0.6995095;2.355405;-0.3762217;0.4663379;-0.3581766;0.4468503;
637946165566935600;1031.156;15;2;4.5;0.1;2.2;2699;1.66728417932568;-0.9526277;0.9499994;-0.9249156;0.9123207;0.7070663;2.342649;0.6995095;2.355405;
637946165587925839;1033.255;15;2;4.5;0.1;2.2;2099;2.14387803716055;1.083289;1.691013;1.04582;1.688335;-0.9526277;0.9499994;-0.9249156;0.9123207;
637946165653998446;1039.863;15;2;4.5;0.1;2.2;6608;0.680992736077482;-1.083289;1.691012;-1.061432;1.70704;1.083289;1.691013;1.04582;1.688335;
637946165674993148;1041.962;15;2;4.5;0.1;2.2;2099;2.14387803716055;0.9526281;0.9500003;0.932809;0.9725807;-1.083289;1.691012;-1.061432;1.70704;
637946165708980755;1045.36;15;2;4.5;0.1;2.2;3398;1.32430841671572;-0.7070671;2.342648;-0.7056352;2.354241;0.9526281;0.9500003;0.932809;0.9725807;
637946165733966352;1047.859;15;2;4.5;0.1;2.2;2499;1.80072028811525;0.3762226;0.4663382;0.3561104;0.4858563;-0.7070671;2.342648;-0.7056352;2.354241;
637946165754961061;1049.958;15;2;1.5;1.1;2;1099;1.36487716105551;-0.3420197;0.5603072;-0.4597189;0.9452727;0;2.5;0.02206434;2.025068;
637946165767953973;1051.257;15;2;1.5;1.1;2;1299;1.15473441108545;0.6427875;2.266045;0.4197583;2.503299;-0.3420197;0.5603072;-0.4597189;0.9452727;
637946165779946656;1052.457;15;2;1.5;1.1;2;1199;1.25104253544621;-0.8660251;0.9999995;-0.6990104;1.333283;0.6427875;2.266045;0.4197583;2.503299;
637946165801051386;1054.567;15;2;1.5;1.1;2;2110;0.710900473933649;0.9848077;1.673648;0.7440393;1.80465;-0.8660251;0.9999995;-0.6990104;1.333283;
637946165815034514;1055.966;15;2;1.5;1.1;2;1399;1.07219442458899;-0.9848078;1.673648;-0.8144078;1.768801;0.9848077;1.673648;0.7440393;1.80465;
637946165832038327;1057.666;15;2;1.5;1.1;2;1700;0.882352941176471;0.8660256;1;0.5816073;1.256468;-0.9848078;1.673648;-0.8144078;1.768801;
637946165843030791;1058.765;15;2;1.5;1.1;2;1099;1.36487716105551;-0.6427882;2.266044;-0.4859322;2.036985;0.8660256;1;0.5816073;1.256468;
637946165882009523;1062.663;15;2;1.5;1.1;2;3898;0.384812724474089;0.3420205;0.5603075;0.2400173;0.6320344;-0.6427882;2.266044;-0.4859322;2.036985;
637946167168526956;1191.315;15;3;4;0.1;1.4;10595;0.377536573855592;-0.2394138;0.8422151;-0.2506568;0.8827498;0;2.2;-0.01107621;2.202844;
637946167297576246;1204.22;15;3;4;0.1;1.4;12905;0.309957380860132;0.4499513;2.036231;0.4198204;2.034049;-0.2394138;0.8422151;-0.2506568;0.8827498;
637946167353658811;1209.828;15;3;4;0.1;1.4;5609;0.713139597076128;-0.6062176;1.15;-0.600706;1.120922;0.4499513;2.036231;0.4198204;2.034049;
637946167372643064;1211.727;15;3;4;0.1;1.4;1899;2.10637177461822;0.6893654;1.621554;0.6476113;1.599325;-0.6062176;1.15;-0.600706;1.120922;
637946167499591501;1224.422;15;3;4;0.1;1.4;12694;0.315109500551442;-0.6893655;1.621553;-0.674392;1.651547;0.6893654;1.621554;0.6476113;1.599325;
637946167566777605;1231.141;15;3;4;0.1;1.4;6719;0.595326685518678;0.6062179;1.15;0.5977939;1.179952;-0.6893655;1.621553;-0.674392;1.651547;
637946167578770288;1232.34;15;3;4;0.1;1.4;1199;3.33611342785655;-0.4499517;2.036231;-0.4328271;2.021737;0.6062179;1.15;0.5977939;1.179952;
637946167604766112;1234.939;15;3;4;0.1;1.4;2599;1.5390534821085;0.2394144;0.8422153;0.2377016;0.8480951;-0.4499517;2.036231;-0.4328271;2.021737;
637946167635743051;1238.037;15;3;1.5;1.1;2;1099;1.36487716105551;-0.3420197;0.5603072;-0.4555424;1.054491;0;2.5;0.001079143;2.236977;
637946167647745740;1239.237;15;3;1.5;1.1;2;1200;1.25;0.6427875;2.266045;0.5699962;2.140212;-0.3420197;0.5603072;-0.4555424;1.054491;
637946167675732010;1242.035;15;3;1.5;1.1;2;2798;0.536097212294496;-0.8660251;0.9999995;-0.6237423;1.46019;0.6427875;2.266045;0.5699962;2.140212;
637946167683723801;1242.835;15;3;1.5;1.1;2;800;1.875;0.9848077;1.673648;0.5393167;1.775913;-0.8660251;0.9999995;-0.6237423;1.46019;
637946167693726040;1243.835;15;3;1.5;1.1;2;1000;1.5;-0.9848078;1.673648;-0.8011682;1.741769;0.9848077;1.673648;0.5393167;1.775913;
637946167701937879;1244.664;15;3;1.5;1.1;2;829;1.80940892641737;0.8660256;1;0.4586539;1.36885;-0.9848078;1.673648;-0.8011682;1.741769;
637946167720822108;1246.544;15;3;1.5;1.1;2;1881;0.797448165869219;-0.6427882;2.266044;-0.3867177;2.222484;0.8660256;1;0.4586539;1.36885;
637946167730814348;1247.544;15;3;1.5;1.1;2;1000;1.5;0.3420205;0.5603075;0.3267796;0.8722538;-0.6427882;2.266044;-0.3867177;2.222484;
637946167813892957;1255.851;15;3;3.5;0.2;2;3110;1.12540192926045;-0.3420197;0.5603072;-0.2817647;0.571838;0;2.5;0.04007102;2.477665;
637946167824885422;1256.951;15;3;3.5;0.2;2;1099;3.18471337579618;0.6427875;2.266045;0.5918342;2.23051;-0.3420197;0.5603072;-0.2817647;0.571838;
637946167845875482;1259.05;15;3;3.5;0.2;2;2099;1.66746069556932;-0.8660251;0.9999995;-0.7736648;1.017717;0.6427875;2.266045;0.5918342;2.23051;
637946167872861526;1261.749;15;3;3.5;0.2;2;2698;1.29725722757598;0.9848077;1.673648;0.9413922;1.651431;-0.8660251;0.9999995;-0.7736648;1.017717;
637946167977923381;1272.255;15;3;3.5;0.2;2;10506;0.333142965924234;-0.9848078;1.673648;-0.9403269;1.741279;0.9848077;1.673648;0.9413922;1.651431;
637946168098980500;1284.36;15;3;3.5;0.2;2;12105;0.289136720363486;0.8660256;1;0.86019;1.07609;-0.9848078;1.673648;-0.9403269;1.741279;
637946168180058663;1292.468;15;3;3.5;0.2;2;8108;0.431672422298964;-0.6427882;2.266044;-0.6338849;2.203913;0.8660256;1;0.86019;1.07609;
637946168310104178;1305.473;15;3;3.5;0.2;2;13005;0.269127258746636;0.3420205;0.5603075;0.3493061;0.6553435;-0.6427882;2.266044;-0.6338849;2.203913;
637946168768333261;1351.296;15;3;4.5;0.1;2.2;30519;0.147449130050133;-0.3762217;0.4663379;-0.3657651;0.4887193;0;2.6;0.01756199;2.562658;
637946168981350982;1372.597;15;3;4.5;0.1;2.2;21301;0.211257687432515;0.7070663;2.342649;0.6837617;2.379684;-0.3762217;0.4663379;-0.3657651;0.4887193;
637946169141499961;1388.612;15;3;4.5;0.1;2.2;16015;0.280986575085857;-0.9526277;0.9499994;-0.9480314;0.9475835;0.7070663;2.342649;0.6837617;2.379684;
637946169166485556;1391.111;15;3;4.5;0.1;2.2;2499;1.80072028811525;1.083289;1.691013;1.043066;1.679209;-0.9526277;0.9499994;-0.9480314;0.9475835;
637946169891710937;1463.633;15;3;4.5;0.1;2.2;72522;0.0620501365103003;-1.083289;1.691012;-1.06346;1.697399;1.083289;1.691013;1.043066;1.679209;
637946169915687686;1466.031;15;3;4.5;0.1;2.2;2399;1.87578157565652;0.9526281;0.9500003;0.9215332;0.9863626;-1.083289;1.691012;-1.06346;1.697399;
637946169938683808;1468.33;15;3;4.5;0.1;2.2;2299;1.9573727707699;-0.7070671;2.342648;-0.6808619;2.349662;0.9526281;0.9500003;0.9215332;0.9863626;
637946169966670076;1471.129;15;3;4.5;0.1;2.2;2799;1.60771704180064;0.3762226;0.4663382;0.3639018;0.4377054;-0.7070671;2.342648;-0.6808619;2.349662;
637946170005758832;1475.038;15;3;3;0.2;1.4;1599;1.87617260787993;-0.2394138;0.8422151;-0.1829439;0.8449664;0;2.2;-0.01207373;2.188646;
637946170024753086;1476.938;15;3;3;0.2;1.4;1899;1.57977883096367;0.4499513;2.036231;0.3790751;1.996785;-0.2394138;0.8422151;-0.1829439;0.8449664;
637946170042747124;1478.737;15;3;3;0.2;1.4;1799;1.66759310728182;-0.6062176;1.15;-0.5925772;1.235781;0.4499513;2.036231;0.3790751;1.996785;
637946170055730022;1480.036;15;3;3;0.2;1.4;1299;2.3094688221709;0.6893654;1.621554;0.6350956;1.643751;-0.6062176;1.15;-0.5925772;1.235781;
637946170066732489;1481.135;15;3;3;0.2;1.4;1100;2.72727272727273;-0.6893655;1.621553;-0.6060373;1.652815;0.6893654;1.621554;0.6350956;1.643751;
637946170081725847;1482.635;15;3;3;0.2;1.4;1500;2;0.6062179;1.15;0.541728;1.189651;-0.6893655;1.621553;-0.6060373;1.652815;
637946170094718760;1483.934;15;3;3;0.2;1.4;1299;2.3094688221709;-0.4499517;2.036231;-0.4637205;2.064427;0.6062179;1.15;0.541728;1.189651;
637946170117713914;1486.233;15;3;3;0.2;1.4;2299;1.30491518051327;0.2394144;0.8422153;0.2151764;0.8951278;-0.4499517;2.036231;-0.4637205;2.064427;
637946170141809304;1488.643;15;3;2;0.6;1.8;1210;1.65289256198347;-0.3078177;0.6542765;-0.3134509;0.9090838;0;2.4;-0.01915124;2.317019;
637946170152801771;1489.743;15;3;2;0.6;1.8;1099;1.81983621474067;0.5785087;2.18944;0.4288687;2.078704;-0.3078177;0.6542765;-0.3134509;0.9090838;
637946170171796026;1491.642;15;3;2;0.6;1.8;1899;1.05318588730911;-0.7794226;1.05;-0.5647985;1.17338;0.5785087;2.18944;0.4288687;2.078704;
637946170183794070;1492.841;15;3;2;0.6;1.8;1200;1.66666666666667;0.8863269;1.656283;0.6581189;1.681347;-0.7794226;1.05;-0.5647985;1.17338;
637946170193003579;1493.77;15;3;2;0.6;1.8;929;2.15285252960172;-0.8863271;1.656283;-0.587748;1.672944;0.8863269;1.656283;0.6581189;1.681347;
637946170204784070;1494.941;15;3;2;0.6;1.8;1171;1.70794192997438;0.779423;1.05;0.5325559;1.145456;-0.8863271;1.656283;-0.587748;1.672944;
637946170221773627;1496.64;15;3;2;0.6;1.8;1699;1.17716303708064;-0.5785094;2.18944;-0.5334052;2.077035;0.779423;1.05;0.5325559;1.145456;
637946170237763430;1498.239;15;3;2;0.6;1.8;1599;1.25078173858662;0.3078185;0.6542768;0.2457246;0.9299531;-0.5785094;2.18944;-0.5334052;2.077035;
637946170274852790;1501.948;15;3;2.5;0.3;1.4;1310;1.90839694656489;-0.2394138;0.8422151;-0.2104415;0.9224588;0;2.2;-0.09877018;2.227144;
637946170285072509;1502.977;15;3;2.5;0.3;1.4;1029;2.42954324586978;0.4499513;2.036231;0.3534689;1.922173;-0.2394138;0.8422151;-0.2104415;0.9224588;
637946170294072648;1503.877;15;3;2.5;0.3;1.4;900;2.77777777777778;-0.6062176;1.15;-0.5647879;1.291221;0.4499513;2.036231;0.3534689;1.922173;
637946170312841143;1505.747;15;3;2.5;0.3;1.4;1870;1.33689839572193;0.6893654;1.621554;0.5890953;1.722389;-0.6062176;1.15;-0.5647879;1.291221;
637946170324834376;1506.946;15;3;2.5;0.3;1.4;1199;2.08507089241034;-0.6893655;1.621553;-0.5656414;1.55202;0.6893654;1.621554;0.5890953;1.722389;
637946170336827147;1508.145;15;3;2.5;0.3;1.4;1200;2.08333333333333;0.6062179;1.15;0.5742841;1.221574;-0.6893655;1.621553;-0.5656414;1.55202;
637946170367834085;1511.244;15;3;2.5;0.3;1.4;3099;0.806711842529848;-0.4499517;2.036231;-0.4943113;2.046775;0.6062179;1.15;0.5742841;1.221574;
637946170389809011;1513.443;15;3;2.5;0.3;1.4;2199;1.1368804001819;0.2394144;0.8422153;0.1982971;0.9489434;-0.4499517;2.036231;-0.4943113;2.046775;
637946171630683677;1637.531;15;4;2.5;0.3;1.4;2400;1.04166666666667;-0.2394138;0.8422151;-0.1818367;0.9399728;0;2.2;-0.04832405;2.165661;
637946171643661631;1638.829;15;4;2.5;0.3;1.4;1298;1.92604006163328;0.4499513;2.036231;0.315004;2.063585;-0.2394138;0.8422151;-0.1818367;0.9399728;
637946171655661154;1640.029;15;4;2.5;0.3;1.4;1200;2.08333333333333;-0.6062176;1.15;-0.5845851;1.097633;0.4499513;2.036231;0.315004;2.063585;
637946171666653611;1641.128;15;4;2.5;0.3;1.4;1099;2.27479526842584;0.6893654;1.621554;0.6290922;1.658849;-0.6062176;1.15;-0.5845851;1.097633;
637946171677646078;1642.227;15;4;2.5;0.3;1.4;1099;2.27479526842584;-0.6893655;1.621553;-0.7053366;1.518435;0.6893654;1.621554;0.6290922;1.658849;
637946171692649440;1643.727;15;4;2.5;0.3;1.4;1500;1.66666666666667;0.6062179;1.15;0.5703655;1.192565;-0.6893655;1.621553;-0.7053366;1.518435;
637946171704644528;1644.926;15;4;2.5;0.3;1.4;1200;2.08333333333333;-0.4499517;2.036231;-0.3970373;2.034565;0.6062179;1.15;0.5703655;1.192565;
637946171717742959;1646.237;15;4;2.5;0.3;1.4;1310;1.90839694656489;0.2394144;0.8422153;0.1702237;0.9066694;-0.4499517;2.036231;-0.3970373;2.034565;
637946171772721033;1651.734;15;4;4.5;0.1;2.2;3099;1.45208131655373;-0.3762217;0.4663379;-0.4022523;0.4969991;0;2.6;0.02671653;2.593469;
637946171792715048;1653.734;15;4;4.5;0.1;2.2;2000;2.25;0.7070663;2.342649;0.6636839;2.355357;-0.3762217;0.4663379;-0.4022523;0.4969991;
637946171807820802;1655.243;15;4;4.5;0.1;2.2;1510;2.98013245033113;-0.9526277;0.9499994;-0.9277973;0.9735893;0.7070663;2.342649;0.6636839;2.355357;
637946171825804839;1657.043;15;4;4.5;0.1;2.2;1799;2.50138966092273;1.083289;1.691013;1.085395;1.737472;-0.9526277;0.9499994;-0.9277973;0.9735893;
637946171847799759;1659.242;15;4;4.5;0.1;2.2;2199;2.04638472032742;-1.083289;1.691012;-1.045377;1.674984;1.083289;1.691013;1.085395;1.737472;
637946171869784692;1661.441;15;4;4.5;0.1;2.2;2199;2.04638472032742;0.9526281;0.9500003;0.9379163;0.9736398;-1.083289;1.691012;-1.045377;1.674984;
637946171888778939;1663.34;15;4;4.5;0.1;2.2;1899;2.3696682464455;-0.7070671;2.342648;-0.6817065;2.316735;0.9526281;0.9500003;0.9379163;0.9736398;
637946171913764543;1665.839;15;4;4.5;0.1;2.2;2499;1.80072028811525;0.3762226;0.4663382;0.376775;0.4650327;-0.7070671;2.342648;-0.6817065;2.316735;
637946171950742825;1669.537;15;4;3.5;0.2;2;1899;1.84307530279094;-0.3420197;0.5603072;-0.3286256;0.6083632;0;2.5;0.0134264;2.505215;
637946171975838447;1672.047;15;4;3.5;0.2;2;2510;1.39442231075697;0.6427875;2.266045;0.652527;2.303771;-0.3420197;0.5603072;-0.3286256;0.6083632;
637946171998833601;1674.346;15;4;3.5;0.2;2;2299;1.52240104393214;-0.8660251;0.9999995;-0.8036455;1.075635;0.6427875;2.266045;0.652527;2.303771;
637946172016827630;1676.145;15;4;3.5;0.2;2;1799;1.94552529182879;0.9848077;1.673648;0.9375381;1.714979;-0.8660251;0.9999995;-0.8036455;1.075635;
637946172043813675;1678.844;15;4;3.5;0.2;2;2699;1.29677658391997;-0.9848078;1.673648;-0.9340546;1.686238;0.9848077;1.673648;0.9375381;1.714979;
637946172064798375;1680.943;15;4;3.5;0.2;2;2099;1.66746069556932;0.8660256;1;0.8229672;1.004041;-0.9848078;1.673648;-0.9340546;1.686238;
637946172120882999;1686.551;15;4;3.5;0.2;2;5608;0.624108416547789;-0.6427882;2.266044;-0.7050199;2.195737;0.8660256;1;0.8229672;1.004041;
637946172145878623;1689.05;15;4;3.5;0.2;2;2499;1.40056022408964;0.3420205;0.5603075;0.3566782;0.615885;-0.6427882;2.266044;-0.7050199;2.195737;
637946172188858249;1693.348;15;4;3;0.2;1.4;2598;1.15473441108545;-0.2394138;0.8422151;-0.2080713;0.9226791;0;2.2;-0.02358032;2.241569;
637946172204851833;1694.947;15;4;3;0.2;1.4;1600;1.875;0.4499513;2.036231;0.4373211;2.017117;-0.2394138;0.8422151;-0.2080713;0.9226791;
637946172224846316;1696.947;15;4;3;0.2;1.4;2000;1.5;-0.6062176;1.15;-0.5293413;1.192989;0.4499513;2.036231;0.4373211;2.017117;
637946172240829893;1698.545;15;4;3;0.2;1.4;1599;1.87617260787993;0.6893654;1.621554;0.6888059;1.650037;-0.6062176;1.15;-0.5293413;1.192989;
637946172252822577;1699.745;15;4;3;0.2;1.4;1199;2.50208507089241;-0.6893655;1.621553;-0.6872229;1.577099;0.6893654;1.621554;0.6888059;1.650037;
637946172268936180;1701.355;15;4;3;0.2;1.4;1611;1.86219739292365;0.6062179;1.15;0.6173641;1.153907;-0.6893655;1.621553;-0.6872229;1.577099;
637946172287920440;1703.255;15;4;3;0.2;1.4;1899;1.57977883096367;-0.4499517;2.036231;-0.4470206;2.087068;0.6062179;1.15;0.6173641;1.153907;
637946172304914247;1704.954;15;4;3;0.2;1.4;1699;1.76574455562095;0.2394144;0.8422153;0.1966586;0.9081489;-0.4499517;2.036231;-0.4470206;2.087068;
637946172342892753;1708.752;15;4;4;0.1;1.4;1899;2.10637177461822;-0.2394138;0.8422151;-0.2420017;0.8527576;0;2.2;0.02342916;2.226314;
637946172363887459;1710.851;15;4;4;0.1;1.4;2099;1.90566936636494;0.4499513;2.036231;0.4178999;2.001302;-0.2394138;0.8422151;-0.2420017;0.8527576;
637946172378880821;1712.35;15;4;4;0.1;1.4;1499;2.66844563042028;-0.6062176;1.15;-0.5680835;1.17522;0.4499513;2.036231;0.4178999;2.001302;
637946172411867481;1715.649;15;4;4;0.1;1.4;3298;1.21285627653123;0.6893654;1.621554;0.6687828;1.610847;-0.6062176;1.15;-0.5680835;1.17522;
637946172445953939;1719.058;15;4;4;0.1;1.4;3410;1.17302052785924;-0.6893655;1.621553;-0.6996;1.63139;0.6893654;1.621554;0.6687828;1.610847;
637946172468949083;1721.357;15;4;4;0.1;1.4;2299;1.73988690735102;0.6062179;1.15;0.5839323;1.168553;-0.6893655;1.621553;-0.6996;1.63139;
637946172493934684;1723.856;15;4;4;0.1;1.4;2499;1.60064025610244;-0.4499517;2.036231;-0.4011707;2.027865;0.6062179;1.15;0.5839323;1.168553;
637946172517930062;1726.255;15;4;4;0.1;1.4;2399;1.66736140058358;0.2394144;0.8422153;0.2218441;0.8527396;-0.4499517;2.036231;-0.4011707;2.027865;
637946172549907228;1729.453;15;4;1.5;1.1;2;1599;0.938086303939963;-0.3420197;0.5603072;-0.4699217;0.95258;0;2.5;0.05189881;2.226683;
637946172561009710;1730.564;15;4;1.5;1.1;2;1110;1.35135135135135;0.6427875;2.266045;0.4183743;2.062412;-0.3420197;0.5603072;-0.4699217;0.95258;
637946172574012625;1731.863;15;4;1.5;1.1;2;1300;1.15384615384615;-0.8660251;0.9999995;-0.6642404;1.375703;0.6427875;2.266045;0.4183743;2.062412;
637946172586005313;1733.063;15;4;1.5;1.1;2;1200;1.25;0.9848077;1.673648;0.5891935;1.73405;-0.8660251;0.9999995;-0.6642404;1.375703;
637946172600998671;1734.562;15;4;1.5;1.1;2;1499;1.00066711140761;-0.9848078;1.673648;-0.5808616;1.737494;0.9848077;1.673648;0.5891935;1.73405;
637946172614991801;1735.962;15;4;1.5;1.1;2;1400;1.07142857142857;0.8660256;1;0.7152292;1.385834;-0.9848078;1.673648;-0.5808616;1.737494;
637946172624984042;1736.961;15;4;1.5;1.1;2;999;1.5015015015015;-0.6427882;2.266044;-0.3121117;1.929367;0.8660256;1;0.7152292;1.385834;
637946172638977176;1738.36;15;4;1.5;1.1;2;1399;1.07219442458899;0.3420205;0.5603075;0.1809797;0.9790493;-0.6427882;2.266044;-0.3121117;1.929367;
637946172673965015;1741.859;15;4;2;0.6;1.8;1899;1.05318588730911;-0.3078177;0.6542765;-0.2027827;0.8690681;0;2.4;-0.1035296;2.306809;
637946172689958601;1743.458;15;4;2;0.6;1.8;1599;1.25078173858662;0.5785087;2.18944;0.3649835;2.153983;-0.3078177;0.6542765;-0.2027827;0.8690681;
637946172703951732;1744.857;15;4;2;0.6;1.8;1400;1.42857142857143;-0.7794226;1.05;-0.6248257;1.272264;0.5785087;2.18944;0.3649835;2.153983;
637946172718060045;1746.268;15;4;2;0.6;1.8;1411;1.41743444365698;0.8863269;1.656283;0.6769515;1.671097;-0.7794226;1.05;-0.6248257;1.272264;
637946172730049513;1747.467;15;4;2;0.6;1.8;1199;1.66805671392827;-0.8863271;1.656283;-0.6716959;1.655534;0.8863269;1.656283;0.6769515;1.671097;
637946172741041976;1748.567;15;4;2;0.6;1.8;1100;1.81818181818182;0.779423;1.05;0.6473817;1.245679;-0.8863271;1.656283;-0.6716959;1.655534;
637946172752034439;1749.666;15;4;2;0.6;1.8;1099;1.81983621474067;-0.5785094;2.18944;-0.4824085;2.059008;0.779423;1.05;0.6473817;1.245679;
637946172766035700;1751.066;15;4;2;0.6;1.8;1399;1.42959256611866;0.3078185;0.6542768;0.3256883;0.9311991;-0.5785094;2.18944;-0.4824085;2.059008;
637946173500258547;1824.487;15;5;4.5;0.1;2.2;3698;1.21687398593835;-0.3762217;0.4663379;-0.3828306;0.4602107;0;2.6;-0.01033845;2.595218;
637946173546238845;1829.085;15;5;4.5;0.1;2.2;4598;0.97868638538495;0.7070663;2.342649;0.6718313;2.312397;-0.3762217;0.4663379;-0.3828306;0.4602107;
637946173579336258;1832.394;15;5;4.5;0.1;2.2;3309;1.3599274705349;-0.9526277;0.9499994;-0.9553281;0.9577398;0.7070663;2.342649;0.6718313;2.312397;
637946173596330065;1834.094;15;5;4.5;0.1;2.2;1699;2.64861683343143;1.083289;1.691013;1.085522;1.692601;-0.9526277;0.9499994;-0.9553281;0.9577398;
637946173616324546;1836.093;15;5;4.5;0.1;2.2;1999;2.25112556278139;-1.083289;1.691012;-1.047034;1.702492;1.083289;1.691013;1.085522;1.692601;
637946173649301930;1839.392;15;5;4.5;0.1;2.2;3299;1.36404971203395;0.9526281;0.9500003;0.9316711;0.9119548;-1.083289;1.691012;-1.047034;1.702492;
637946173687280440;1843.189;15;5;4.5;0.1;2.2;3798;1.18483412322275;-0.7070671;2.342648;-0.7082495;2.368617;0.9526281;0.9500003;0.9316711;0.9119548;
637946173717267161;1846.188;15;5;4.5;0.1;2.2;2999;1.50050016672224;0.3762226;0.4663382;0.3617067;0.4657402;-0.7070671;2.342648;-0.7082495;2.368617;
637946173772359497;1851.697;15;5;3;0.2;1.4;3498;0.857632933104631;-0.2394138;0.8422151;-0.2845593;0.8762712;0;2.2;0.078812;2.235198;
637946173791351450;1853.596;15;5;3;0.2;1.4;1899;1.57977883096367;0.4499513;2.036231;0.4200467;2.082575;-0.2394138;0.8422151;-0.2845593;0.8762712;
637946173827335188;1857.194;15;5;3;0.2;1.4;3598;0.833796553640912;-0.6062176;1.15;-0.6331652;1.159741;0.4499513;2.036231;0.4200467;2.082575;
637946173846347378;1859.094;15;5;3;0.2;1.4;1900;1.57894736842105;0.6893654;1.621554;0.7009519;1.615968;-0.6062176;1.15;-0.6331652;1.159741;
637946173879422157;1862.403;15;5;3;0.2;1.4;3308;0.90689238210399;-0.6893655;1.621553;-0.7387543;1.607188;0.6893654;1.621554;0.7009519;1.615968;
637946173910402348;1865.502;15;5;3;0.2;1.4;3099;0.968054211035818;0.6062179;1.15;0.5572243;1.189018;-0.6893655;1.621553;-0.7387543;1.607188;
637946173941389276;1868.6;15;5;3;0.2;1.4;3098;0.968366688185926;-0.4499517;2.036231;-0.4776219;2.077059;0.6062179;1.15;0.5572243;1.189018;
637946173992480724;1873.709;15;5;3;0.2;1.4;5109;0.587199060481503;0.2394144;0.8422153;0.1620804;0.8756336;-0.4499517;2.036231;-0.4776219;2.077059;
637946174036460580;1878.107;15;5;3.5;0.2;2;3099;1.12939657954179;-0.3420197;0.5603072;-0.3471728;0.6252851;0;2.5;-0.001293456;2.529874;
637946174077429758;1882.204;15;5;3.5;0.2;2;4098;0.854075158613958;0.6427875;2.266045;0.6358039;2.225389;-0.3420197;0.5603072;-0.3471728;0.6252851;
637946174102535379;1884.714;15;5;3.5;0.2;2;2510;1.39442231075697;-0.8660251;0.9999995;-0.8810145;1.053596;0.6427875;2.266045;0.6358039;2.225389;
637946174168503027;1891.311;15;5;3.5;0.2;2;6597;0.530544186751554;0.9848077;1.673648;0.9786108;1.694658;-0.8660251;0.9999995;-0.8810145;1.053596;
637946174192498402;1893.71;15;5;3.5;0.2;2;2399;1.45894122551063;-0.9848078;1.673648;-1.042875;1.749061;0.9848077;1.673648;0.9786108;1.694658;
637946174218487715;1896.309;15;5;3.5;0.2;2;2599;1.34667179684494;0.8660256;1;0.8294783;1.042032;-0.9848078;1.673648;-1.042875;1.749061;
637946174266458485;1901.107;15;5;3.5;0.2;2;4798;0.729470612755315;-0.6427882;2.266044;-0.6079057;2.205916;0.8660256;1;0.8294783;1.042032;
637946174288543429;1903.317;15;5;3.5;0.2;2;2210;1.58371040723982;0.3420205;0.5603075;0.2885688;0.6218351;-0.6427882;2.266044;-0.6079057;2.205916;
637946174314539254;1905.916;15;5;2;0.6;1.8;1400;1.42857142857143;-0.3078177;0.6542765;-0.3181016;0.8532708;0;2.4;-0.03537252;2.230828;
637946174327522159;1907.215;15;5;2;0.6;1.8;1299;1.53964588144727;0.5785087;2.18944;0.5174845;2.172772;-0.3078177;0.6542765;-0.3181016;0.8532708;
637946174356518655;1910.114;15;5;2;0.6;1.8;2899;0.689893066574681;-0.7794226;1.05;-0.9751303;1.121338;0.5785087;2.18944;0.5174845;2.172772;
637946174382504479;1912.713;15;5;2;0.6;1.8;2599;0.769526741054252;0.8863269;1.656283;0.6924336;1.722656;-0.7794226;1.05;-0.9751303;1.121338;
637946174437586818;1918.221;15;5;2;0.6;1.8;5508;0.363108206245461;-0.8863271;1.656283;-1.004513;1.46392;0.8863269;1.656283;0.6924336;1.722656;
637946174463572633;1920.82;15;5;2;0.6;1.8;2599;0.769526741054252;0.779423;1.05;0.6451942;1.114816;-0.8863271;1.656283;-1.004513;1.46392;
637946174512546526;1925.718;15;5;2;0.6;1.8;4898;0.408329930583912;-0.5785094;2.18944;-0.7122411;2.273054;0.779423;1.05;0.6451942;1.114816;
637946174565641889;1931.026;15;5;2;0.6;1.8;5309;0.376718779431155;0.3078185;0.6542768;0.119653;0.7053264;-0.5785094;2.18944;-0.7122411;2.273054;
637946174618623941;1936.324;15;5;2.5;0.3;1.4;1100;2.27272727272727;-0.2394138;0.8422151;-0.2266352;0.9035074;0;2.2;-0.04412598;2.208103;
637946174656712470;1940.133;15;5;2.5;0.3;1.4;3809;0.656340246783933;0.4499513;2.036231;0.411036;2.065912;-0.2394138;0.8422151;-0.2266352;0.9035074;
637946174723677471;1946.83;15;5;2.5;0.3;1.4;6697;0.373301478273854;-0.6062176;1.15;-0.5939159;1.258797;0.4499513;2.036231;0.411036;2.065912;
637946174736670381;1948.129;15;5;2.5;0.3;1.4;1299;1.92455735180908;0.6893654;1.621554;0.7397431;1.675807;-0.6062176;1.15;-0.5939159;1.258797;
637946174777649562;1952.227;15;5;2.5;0.3;1.4;4098;0.610053684724256;-0.6893655;1.621553;-0.7584775;1.624786;0.6893654;1.621554;0.7397431;1.675807;
637946174807746301;1955.237;15;5;2.5;0.3;1.4;3010;0.830564784053156;0.6062179;1.15;0.5330637;1.250588;-0.6893655;1.621553;-0.7584775;1.624786;
637946174831741679;1957.636;15;5;2.5;0.3;1.4;2399;1.04210087536474;-0.4499517;2.036231;-0.5035082;2.086142;0.6062179;1.15;0.5330637;1.250588;
637946174886819891;1963.145;15;5;2.5;0.3;1.4;5508;0.453885257806826;0.2394144;0.8422153;0.1667039;0.8819073;-0.4499517;2.036231;-0.5035082;2.086142;
637946174919814280;1966.443;15;5;4;0.1;1.4;1800;2.22222222222222;-0.2394138;0.8422151;-0.224182;0.8757989;0;2.2;0.005836003;2.218691;
637946174943797587;1968.842;15;5;4;0.1;1.4;2399;1.66736140058358;0.4499513;2.036231;0.4273894;2.054835;-0.2394138;0.8422151;-0.224182;0.8757989;
637946175000883527;1974.551;15;5;4;0.1;1.4;5709;0.70064809949203;-0.6062176;1.15;-0.5966406;1.137512;0.4499513;2.036231;0.4273894;2.054835;
637946175022868451;1976.749;15;5;4;0.1;1.4;2198;1.81983621474067;0.6893654;1.621554;0.6468202;1.604451;-0.6062176;1.15;-0.5966406;1.137512;
637946175057876286;1980.249;15;5;4;0.1;1.4;3499;1.14318376679051;-0.6893655;1.621553;-0.6931846;1.621535;0.6893654;1.621554;0.6468202;1.604451;
637946175101946165;1984.657;15;5;4;0.1;1.4;4408;0.907441016333938;0.6062179;1.15;0.5791872;1.16969;-0.6893655;1.621553;-0.6931846;1.621535;
637946175138924449;1988.355;15;5;4;0.1;1.4;3698;1.08166576527853;-0.4499517;2.036231;-0.4559116;2.024315;0.6062179;1.15;0.5791872;1.16969;
637946175204909229;1994.953;15;5;4;0.1;1.4;6598;0.606244316459533;0.2394144;0.8422153;0.2218982;0.8833688;-0.4499517;2.036231;-0.4559116;2.024315;
637946175236886394;1998.151;15;5;1.5;1.1;2;1400;1.07142857142857;-0.3420197;0.5603072;-0.3334475;1.008228;0;2.5;-0.09607856;2.332888;
637946175250983770;1999.561;15;5;1.5;1.1;2;1410;1.06382978723404;0.6427875;2.266045;0.3698386;2.160942;-0.3420197;0.5603072;-0.3334475;1.008228;
637946175266973741;2001.16;15;5;1.5;1.1;2;1599;0.938086303939963;-0.8660251;0.9999995;-0.6986572;1.399189;0.6427875;2.266045;0.3698386;2.160942;
637946175316953832;2006.158;15;5;1.5;1.1;2;4998;0.300120048019208;0.9848077;1.673648;0.6690575;2.074202;-0.8660251;0.9999995;-0.6986572;1.399189;
637946175330946963;2007.557;15;5;1.5;1.1;2;1399;1.07219442458899;-0.9848078;1.673648;-0.7593035;1.746763;0.9848077;1.673648;0.6690575;2.074202;
637946175345950328;2009.057;15;5;1.5;1.1;2;1500;1;0.8660256;1;0.6426964;1.440323;-0.9848078;1.673648;-0.7593035;1.746763;
637946175366054836;2011.068;15;5;1.5;1.1;2;2011;0.745897563401293;-0.6427882;2.266044;-0.3649662;2.0033;0.8660256;1;0.6426964;1.440323;
637946175391030423;2013.566;15;5;1.5;1.1;2;2498;0.600480384307446;0.3420205;0.5603075;0.3288527;1.057898;-0.6427882;2.266044;-0.3649662;2.0033;
637946176642571273;2138.719;15;6;3.5;0.2;2;2599;1.34667179684494;-0.3420197;0.5603072;-0.2737077;0.6167539;0;2.5;-0.04262589;2.440205;
637946176680559781;2142.517;15;6;3.5;0.2;2;3799;0.921295077652014;0.6427875;2.266045;0.6622611;2.267252;-0.3420197;0.5603072;-0.2737077;0.6167539;
637946177082702420;2182.731;15;6;3.5;0.2;2;40214;0.0870343661411449;-0.8660251;0.9999995;-0.831133;1.033489;0.6427875;2.266045;0.6622611;2.267252;
637946177104932038;2184.961;15;6;3.5;0.2;2;2230;1.5695067264574;0.9848077;1.673648;0.8889784;1.65096;-0.8660251;0.9999995;-0.831133;1.033489;
637946177135679668;2188.029;15;6;3.5;0.2;2;3068;1.14080834419817;-0.9848078;1.673648;-0.931406;1.693929;0.9848077;1.673648;0.8889784;1.65096;
637946177170777526;2191.538;15;6;3.5;0.2;2;3510;0.997150997150997;0.8660256;1;0.8143636;1.015428;-0.9848078;1.673648;-0.931406;1.693929;
637946177220748723;2196.536;15;6;3.5;0.2;2;4998;0.700280112044818;-0.6427882;2.266044;-0.6532096;2.286011;0.8660256;1;0.8143636;1.015428;
637946177287716910;2203.233;15;6;3.5;0.2;2;6697;0.522622069583396;0.3420205;0.5603075;0.3431721;0.6052036;-0.6427882;2.266044;-0.6532096;2.286011;
637946177447745412;2219.237;15;6;1.5;1.1;2;14405;0.1041305102395;-0.3420197;0.5603072;-0.2625048;1.060707;0;2.5;-0.08122593;2.228603;
637946177496826415;2224.145;15;6;1.5;1.1;2;4908;0.305623471882641;0.6427875;2.266045;0.530137;2.225336;-0.3420197;0.5603072;-0.2625048;1.060707;
637946177520821780;2226.544;15;6;1.5;1.1;2;2399;0.625260525218841;-0.8660251;0.9999995;-0.8395572;1.310063;0.6427875;2.266045;0.530137;2.225336;
637946177538805809;2228.343;15;6;1.5;1.1;2;1799;0.833796553640912;0.9848077;1.673648;0.552507;1.735299;-0.8660251;0.9999995;-0.8395572;1.310063;
637946177549808274;2229.443;15;6;1.5;1.1;2;1100;1.36363636363636;-0.9848078;1.673648;-0.6521195;1.770301;0.9848077;1.673648;0.552507;1.735299;
637946177562801184;2230.742;15;6;1.5;1.1;2;1299;1.15473441108545;0.8660256;1;0.8282203;1.324553;-0.9848078;1.673648;-0.6521195;1.770301;
637946177573793646;2231.842;15;6;1.5;1.1;2;1099;1.36487716105551;-0.6427882;2.266044;-0.4627837;1.947543;0.8660256;1;0.8282203;1.324553;
637946177593788126;2233.841;15;6;1.5;1.1;2;1999;0.750375187593797;0.3420205;0.5603075;0.382437;0.9690999;-0.6427882;2.266044;-0.4627837;1.947543;
637946177636877778;2238.15;15;6;2;0.6;1.8;2499;0.800320128051221;-0.3078177;0.6542765;-0.2502545;0.8196152;0;2.4;0.03503112;2.331195;
637946177644879564;2238.95;15;6;2;0.6;1.8;800;2.5;0.5785087;2.18944;0.5023405;1.925444;-0.3078177;0.6542765;-0.2502545;0.8196152;
637946177659872932;2240.449;15;6;2;0.6;1.8;1500;1.33333333333333;-0.7794226;1.05;-0.601483;1.217743;0.5785087;2.18944;0.5023405;1.925444;
637946177684848532;2242.948;15;6;2;0.6;1.8;2498;0.800640512409928;0.8863269;1.656283;0.7707167;1.591787;-0.7794226;1.05;-0.601483;1.217743;
637946177696851213;2244.147;15;6;2;0.6;1.8;1200;1.66666666666667;-0.8863271;1.656283;-0.7841597;1.651214;0.8863269;1.656283;0.7707167;1.591787;
637946177707853681;2245.247;15;6;2;0.6;1.8;1100;1.81818181818182;0.779423;1.05;0.7179833;1.201272;-0.8863271;1.656283;-0.7841597;1.651214;
637946177720841934;2246.546;15;6;2;0.6;1.8;1299;1.53964588144727;-0.5785094;2.18944;-0.6053473;2.199911;0.779423;1.05;0.7179833;1.201272;
637946177736831187;2248.146;15;6;2;0.6;1.8;1599;1.25078173858662;0.3078185;0.6542768;0.3185657;0.814234;-0.5785094;2.18944;-0.6053473;2.199911;
637946177774919728;2251.955;15;6;3;0.2;1.4;2199;1.36425648021828;-0.2394138;0.8422151;-0.2156617;0.8413755;0;2.2;0.01762048;2.186511;
637946177788922868;2253.354;15;6;3;0.2;1.4;1399;2.14438884917798;0.4499513;2.036231;0.409642;1.99293;-0.2394138;0.8422151;-0.2156617;0.8413755;
637946177801905776;2254.653;15;6;3;0.2;1.4;1299;2.3094688221709;-0.6062176;1.15;-0.6163604;1.182287;0.4499513;2.036231;0.409642;1.99293;
637946177814908688;2255.953;15;6;3;0.2;1.4;1300;2.30769230769231;0.6893654;1.621554;0.6483989;1.584896;-0.6062176;1.15;-0.6163604;1.182287;
637946177839894282;2258.451;15;6;3;0.2;1.4;2498;1.20096076861489;-0.6893655;1.621553;-0.6475772;1.657162;0.6893654;1.621554;0.6483989;1.584896;
637946177864879887;2260.951;15;6;3;0.2;1.4;2499;1.20048019207683;0.6062179;1.15;0.5670452;1.153047;-0.6893655;1.621553;-0.6475772;1.657162;
637946177894866596;2263.949;15;6;3;0.2;1.4;2999;1.00033344448149;-0.4499517;2.036231;-0.4280613;2.047945;0.6062179;1.15;0.5670452;1.153047;
637946177921962670;2266.659;15;6;3;0.2;1.4;2710;1.1070110701107;0.2394144;0.8422153;0.2460366;0.8742422;-0.4499517;2.036231;-0.4280613;2.047945;
637946177954950058;2269.958;15;6;2.5;0.3;1.4;1999;1.25062531265633;-0.2394138;0.8422151;-0.2068053;0.8588352;0;2.2;0.008349918;2.103833;
637946177969943416;2271.457;15;6;2.5;0.3;1.4;1499;1.66777851901268;0.4499513;2.036231;0.4210088;2.11018;-0.2394138;0.8422151;-0.2068053;0.8588352;
637946177982936328;2272.756;15;6;2.5;0.3;1.4;1300;1.92307692307692;-0.6062176;1.15;-0.5389087;1.172464;0.4499513;2.036231;0.4210088;2.11018;
637946177994929018;2273.955;15;6;2.5;0.3;1.4;1199;2.08507089241034;0.6893654;1.621554;0.5796644;1.595752;-0.6062176;1.15;-0.5389087;1.172464;
637946178004931259;2274.955;15;6;2.5;0.3;1.4;1000;2.5;-0.6893655;1.621553;-0.8023903;1.623651;0.6893654;1.621554;0.5796644;1.595752;
637946178022915284;2276.754;15;6;2.5;0.3;1.4;1799;1.38966092273485;0.6062179;1.15;0.5960401;1.162051;-0.6893655;1.621553;-0.8023903;1.623651;
637946178042909760;2278.753;15;6;2.5;0.3;1.4;1999;1.25062531265633;-0.4499517;2.036231;-0.5478668;2.030476;0.6062179;1.15;0.5960401;1.162051;
637946178055902671;2280.053;15;6;2.5;0.3;1.4;1299;1.92455735180908;0.2394144;0.8422153;0.1768176;0.8972898;-0.4499517;2.036231;-0.5478668;2.030476;
637946178090000380;2283.462;15;6;4;0.1;1.4;1799;2.22345747637576;-0.2394138;0.8422151;-0.2396512;0.8016478;0;2.2;-0.008958312;2.197709;
637946178116988452;2286.161;15;6;4;0.1;1.4;2699;1.48203038162282;0.4499513;2.036231;0.4334074;2.062183;-0.2394138;0.8422151;-0.2396512;0.8016478;
637946178160968034;2290.559;15;6;4;0.1;1.4;4398;0.909504320145521;-0.6062176;1.15;-0.6100304;1.145083;0.4499513;2.036231;0.4334074;2.062183;
637946178190954754;2293.558;15;6;4;0.1;1.4;2999;1.33377792597533;0.6893654;1.621554;0.6840563;1.607746;-0.6062176;1.15;-0.6100304;1.145083;
637946178211939451;2295.657;15;6;4;0.1;1.4;2099;1.90566936636494;-0.6893655;1.621553;-0.6774164;1.638471;0.6893654;1.621554;0.6840563;1.607746;
637946178228043057;2297.267;15;6;4;0.1;1.4;1610;2.48447204968944;0.6062179;1.15;0.5670062;1.167815;-0.6893655;1.621553;-0.6774164;1.638471;
637946178246037089;2299.066;15;6;4;0.1;1.4;1799;2.22345747637576;-0.4499517;2.036231;-0.4084141;2.01896;0.6062179;1.15;0.5670062;1.167815;
637946178276023800;2302.065;15;6;4;0.1;1.4;2999;1.33377792597533;0.2394144;0.8422153;0.2523046;0.8233588;-0.4499517;2.036231;-0.4084141;2.01896;
637946178354991498;2309.961;15;6;4.5;0.1;2.2;3598;1.25069483046137;-0.3762217;0.4663379;-0.3582463;0.4959508;0;2.6;-0.002422119;2.615327;
637946178390079359;2313.47;15;6;4.5;0.1;2.2;3509;1.28241664291821;0.7070663;2.342649;0.6841086;2.334607;-0.3762217;0.4663379;-0.3582463;0.4959508;
637946178416065177;2316.069;15;6;4.5;0.1;2.2;2599;1.73143516737207;-0.9526277;0.9499994;-0.9276217;0.973737;0.7070663;2.342649;0.6841086;2.334607;
637946178452047146;2319.668;15;6;4.5;0.1;2.2;3598;1.25069483046137;1.083289;1.691013;1.041953;1.663292;-0.9526277;0.9499994;-0.9276217;0.973737;
637946178486040337;2323.066;15;6;4.5;0.1;2.2;3399;1.32391879964696;-1.083289;1.691012;-1.067846;1.699424;1.083289;1.691013;1.041953;1.663292;
637946178537018952;2328.164;15;6;4.5;0.1;2.2;5098;0.882699097685367;0.9526281;0.9500003;0.9422034;0.9402284;-1.083289;1.691012;-1.067846;1.699424;
637946178563113393;2330.774;15;6;4.5;0.1;2.2;2610;1.72413793103448;-0.7070671;2.342648;-0.6945232;2.338037;0.9526281;0.9500003;0.9422034;0.9402284;
637946178602092126;2334.672;15;6;4.5;0.1;2.2;3898;1.15443817342227;0.3762226;0.4663382;0.380395;0.5091208;-0.7070671;2.342648;-0.6945232;2.338037;
637946179370409526;2411.503;15;7;1.5;1.1;2;2899;0.517419799931011;-0.3420197;0.5603072;-0.2917664;1.107886;0;2.5;-0.02059818;1.956361;
637946179400386236;2414.501;15;7;1.5;1.1;2;2998;0.500333555703803;0.6427875;2.266045;0.3819209;2.058046;-0.3420197;0.5603072;-0.2917664;1.107886;
637946179411388702;2415.601;15;7;1.5;1.1;2;1099;1.36487716105551;-0.8660251;0.9999995;-0.6773288;1.276228;0.6427875;2.266045;0.3819209;2.058046;
637946179421390943;2416.601;15;7;1.5;1.1;2;1000;1.5;0.9848077;1.673648;0.4991698;1.545805;-0.8660251;0.9999995;-0.6773288;1.276228;
637946179434483876;2417.911;15;7;1.5;1.1;2;1310;1.14503816793893;-0.9848078;1.673648;-0.7735462;1.532273;0.9848077;1.673648;0.4991698;1.545805;
637946179447486789;2419.211;15;7;1.5;1.1;2;1300;1.15384615384615;0.8660256;1;0.6461016;1.30323;-0.9848078;1.673648;-0.7735462;1.532273;
637946179457479028;2420.21;15;7;1.5;1.1;2;999;1.5015015015015;-0.6427882;2.266044;-0.4560142;1.865425;0.8660256;1;0.6461016;1.30323;
637946179469471713;2421.41;15;7;1.5;1.1;2;1200;1.25;0.3420205;0.5603075;0.3249967;0.9409907;-0.6427882;2.266044;-0.4560142;1.865425;
637946179512451340;2425.707;15;7;4;0.1;1.4;1599;2.50156347717323;-0.2394138;0.8422151;-0.2011176;0.8528236;0;2.2;-0.01134334;2.220587;
637946179536436712;2428.106;15;7;4;0.1;1.4;2399;1.66736140058358;0.4499513;2.036231;0.4346159;2.039895;-0.2394138;0.8422151;-0.2011176;0.8528236;
637946179559431865;2430.406;15;7;4;0.1;1.4;2299;1.73988690735102;-0.6062176;1.15;-0.6144751;1.174576;0.4499513;2.036231;0.4346159;2.039895;
637946179595522993;2434.015;15;7;4;0.1;1.4;3609;1.10834026045996;0.6893654;1.621554;0.6850334;1.61174;-0.6062176;1.15;-0.6144751;1.174576;
637946179615513335;2436.014;15;7;4;0.1;1.4;1999;2.00100050025012;-0.6893655;1.621553;-0.7174917;1.607924;0.6893654;1.621554;0.6850334;1.61174;
637946179651493923;2439.612;15;7;4;0.1;1.4;3599;1.11141983884412;0.6062179;1.15;0.56812;1.149785;-0.6893655;1.621553;-0.7174917;1.607924;
637946179677483790;2442.211;15;7;4;0.1;1.4;2599;1.5390534821085;-0.4499517;2.036231;-0.4488339;2.045427;0.6062179;1.15;0.56812;1.149785;
637946179713581874;2445.821;15;7;4;0.1;1.4;3610;1.10803324099723;0.2394144;0.8422153;0.2163603;0.8450662;-0.4499517;2.036231;-0.4488339;2.045427;
637946179768554190;2451.318;15;7;2.5;0.3;1.4;2799;0.893176134333691;-0.2394138;0.8422151;-0.2832972;0.8649341;0;2.2;-0.09522466;2.248459;
637946179784547773;2452.917;15;7;2.5;0.3;1.4;1599;1.56347717323327;0.4499513;2.036231;0.3967947;1.985609;-0.2394138;0.8422151;-0.2832972;0.8649341;
637946179810543596;2455.517;15;7;2.5;0.3;1.4;2600;0.961538461538462;-0.6062176;1.15;-0.6287871;1.140539;0.4499513;2.036231;0.3967947;1.985609;
637946179836629433;2458.125;15;7;2.5;0.3;1.4;2609;0.958221540820238;0.6893654;1.621554;0.6339661;1.64704;-0.6062176;1.15;-0.6287871;1.140539;
637946179855593684;2460.021;15;7;2.5;0.3;1.4;1896;1.31856540084388;-0.6893655;1.621553;-0.7338361;1.65107;0.6893654;1.621554;0.6339661;1.64704;
637946179880609290;2462.523;15;7;2.5;0.3;1.4;2502;0.999200639488409;0.6062179;1.15;0.5096804;1.167413;-0.6893655;1.621553;-0.7338361;1.65107;
637946179892611977;2463.723;15;7;2.5;0.3;1.4;1200;2.08333333333333;-0.4499517;2.036231;-0.437016;1.940218;0.6062179;1.15;0.5096804;1.167413;
637946179908615571;2465.323;15;7;2.5;0.3;1.4;1600;1.5625;0.2394144;0.8422153;0.1722839;0.9037691;-0.4499517;2.036231;-0.437016;1.940218;
637946179956688114;2470.131;15;7;4.5;0.1;2.2;1500;3;-0.3762217;0.4663379;-0.3316803;0.4886488;0;2.6;-0.01678105;2.600961;
637946179992668266;2473.73;15;7;4.5;0.1;2.2;3598;1.25069483046137;0.7070663;2.342649;0.7100995;2.324687;-0.3762217;0.4663379;-0.3316803;0.4886488;
637946180055759006;2480.038;15;7;4.5;0.1;2.2;6308;0.713379835129994;-0.9526277;0.9499994;-0.9544026;0.9652368;0.7070663;2.342649;0.7100995;2.324687;
637946180072742810;2481.737;15;7;4.5;0.1;2.2;1699;2.64861683343143;1.083289;1.691013;1.053664;1.697439;-0.9526277;0.9499994;-0.9544026;0.9652368;
637946180116722660;2486.135;15;7;4.5;0.1;2.2;4398;1.02319236016371;-1.083289;1.691012;-1.092043;1.70799;1.083289;1.691013;1.053664;1.697439;
637946180143718708;2488.834;15;7;4.5;0.1;2.2;2699;1.66728417932568;0.9526281;0.9500003;0.9382645;0.9724089;-1.083289;1.691012;-1.092043;1.70799;
637946180164703409;2490.933;15;7;4.5;0.1;2.2;2099;2.14387803716055;-0.7070671;2.342648;-0.7188678;2.317476;0.9526281;0.9500003;0.9382645;0.9724089;
637946180200801490;2494.542;15;7;4.5;0.1;2.2;3610;1.24653739612188;0.3762226;0.4663382;0.3718421;0.4729594;-0.7070671;2.342648;-0.7188678;2.317476;
637946180244781339;2498.94;15;7;3;0.2;1.4;1499;2.00133422281521;-0.2394138;0.8422151;-0.265067;0.8661326;0;2.2;-0.0229737;2.224759;
637946180292763037;2503.738;15;7;3;0.2;1.4;4798;0.625260525218841;0.4499513;2.036231;0.4123079;2.103014;-0.2394138;0.8422151;-0.265067;0.8661326;
637946180336842876;2508.147;15;7;3;0.2;1.4;4409;0.680426400544341;-0.6062176;1.15;-0.6425668;1.205913;0.4499513;2.036231;0.4123079;2.103014;
637946180351838871;2509.646;15;7;3;0.2;1.4;1499;2.00133422281521;0.6893654;1.621554;0.6526615;1.643918;-0.6062176;1.15;-0.6425668;1.205913;
637946180380825443;2512.545;15;7;3;0.2;1.4;2899;1.03483959986202;-0.6893655;1.621553;-0.7073584;1.681054;0.6893654;1.621554;0.6526615;1.643918;
637946180412812609;2515.743;15;7;3;0.2;1.4;3198;0.938086303939963;0.6062179;1.15;0.5610033;1.221826;-0.6893655;1.621553;-0.7073584;1.681054;
637946180461793585;2520.641;15;7;3;0.2;1.4;4898;0.612494895875868;-0.4499517;2.036231;-0.4608006;2.00108;0.6062179;1.15;0.5610033;1.221826;
637946180477897194;2522.252;15;7;3;0.2;1.4;1611;1.86219739292365;0.2394144;0.8422153;0.2226947;0.887759;-0.4499517;2.036231;-0.4608006;2.00108;
637946180516875921;2526.149;15;7;2;0.6;1.8;2198;0.909918107370337;-0.3078177;0.6542765;-0.2584452;0.8992224;0;2.4;-0.06941997;2.25714;
637946180530869056;2527.549;15;7;2;0.6;1.8;1400;1.42857142857143;0.5785087;2.18944;0.4441061;2.019086;-0.3078177;0.6542765;-0.2584452;0.8992224;
637946180562846225;2530.747;15;7;2;0.6;1.8;3198;0.625390869293308;-0.7794226;1.05;-0.8009159;1.075856;0.5785087;2.18944;0.4441061;2.019086;
637946180625820331;2537.045;15;7;2;0.6;1.8;6297;0.317611561060823;0.8863269;1.656283;0.6531593;1.837493;-0.7794226;1.05;-0.8009159;1.075856;
637946180681914190;2542.654;15;7;2;0.6;1.8;5609;0.356569798538064;-0.8863271;1.656283;-1.023858;1.66266;0.8863269;1.656283;0.6531593;1.837493;
637946180697917901;2544.254;15;7;2;0.6;1.8;1601;1.24921923797626;0.779423;1.05;0.7198412;1.245681;-0.8863271;1.656283;-1.023858;1.66266;
637946180732881146;2547.751;15;7;2;0.6;1.8;3497;0.571918787532171;-0.5785094;2.18944;-0.4642805;2.018206;0.779423;1.05;0.7198412;1.245681;
637946180763868094;2550.849;15;7;2;0.6;1.8;3099;0.645369474023879;0.3078185;0.6542768;0.2273866;0.793095;-0.5785094;2.18944;-0.4642805;2.018206;
637946180808958192;2555.358;15;7;3.5;0.2;2;2199;1.59163256025466;-0.3420197;0.5603072;-0.3224677;0.6306645;0;2.5;0.001811545;2.467592;
637946180830953117;2557.557;15;7;3.5;0.2;2;2199;1.59163256025466;0.6427875;2.266045;0.6087056;2.276073;-0.3420197;0.5603072;-0.3224677;0.6306645;
637946180874042768;2561.866;15;7;3.5;0.2;2;4309;0.812253423067997;-0.8660251;0.9999995;-0.830296;0.9874219;0.6427875;2.266045;0.6087056;2.276073;
637946180932015754;2567.664;15;7;3.5;0.2;2;5797;0.603760565809902;0.9848077;1.673648;0.9256942;1.69995;-0.8660251;0.9999995;-0.830296;0.9874219;
637946180982987174;2572.761;15;7;3.5;0.2;2;5098;0.686543742644174;-0.9848078;1.673648;-1.028731;1.638904;0.9848077;1.673648;0.9256942;1.69995;
637946181074166872;2581.879;15;7;3.5;0.2;2;9118;0.383856108795789;0.8660256;1;0.8212075;0.9503778;-0.9848078;1.673648;-1.028731;1.638904;
637946181093164976;2583.779;15;7;3.5;0.2;2;1899;1.84307530279094;-0.6427882;2.266044;-0.6015862;2.239443;0.8660256;1;0.8212075;0.9503778;
637946181121151244;2586.577;15;7;3.5;0.2;2;2798;1.25089349535382;0.3420205;0.5603075;0.3411539;0.5870731;-0.6427882;2.266044;-0.6015862;2.239443;
