637946190130535467;351.5335;16;0;1.5;1.1;2;1399;1.07219442458899;-0.3420197;0.5603072;-0.09137727;0.9261395;0;2.5;0.03341686;2.301161;
637946190145638848;353.0442;16;0;1.5;1.1;2;1511;0.992720052945069;0.6427875;2.266045;0.5252366;2.28084;-0.3420197;0.5603072;-0.09137727;0.9261395;
637946190156631312;354.1434;16;0;1.5;1.1;2;1099;1.36487716105551;-0.8660251;0.9999995;-0.8551551;1.135616;0.6427875;2.266045;0.5252366;2.28084;
637946190162012519;354.6885;16;0;1.5;1.1;2;545;2.75229357798165;0.9848077;1.673648;0.4880802;1.494201;-0.8660251;0.9999995;-0.8551551;1.135616;
637946190171624670;355.6425;16;0;1.5;1.1;2;954;1.57232704402516;-0.9848078;1.673648;-0.8530205;1.723263;0.9848077;1.673648;0.4880802;1.494201;
637946190180616685;356.542;16;0;1.5;1.1;2;899;1.66852057842047;0.8660256;1;0.7166677;1.330296;-0.9848078;1.673648;-0.8530205;1.723263;
637946190192609369;357.7415;16;0;1.5;1.1;2;1199;1.25104253544621;-0.6427882;2.266044;-0.5870084;2.439728;0.8660256;1;0.7166677;1.330296;
637946190209603181;359.4409;16;0;1.5;1.1;2;1699;0.882872277810477;0.3420205;0.5603075;0.1959542;0.5401953;-0.6427882;2.266044;-0.5870084;2.439728;
637946190275688482;366.049;16;0;3.5;0.2;2;3809;0.918876345497506;-0.3420197;0.5603072;-0.3264886;0.622278;0;2.5;0.03715244;2.498542;
637946190286680944;367.1485;16;0;3.5;0.2;2;1100;3.18181818181818;0.6427875;2.266045;0.7169065;2.277817;-0.3420197;0.5603072;-0.3264886;0.622278;
637946190322666150;370.7467;16;0;3.5;0.2;2;3598;0.972762645914397;-0.8660251;0.9999995;-0.8120087;0.9776838;0.6427875;2.266045;0.7169065;2.277817;
637946190348647719;373.3455;16;0;3.5;0.2;2;2599;1.34667179684494;0.9848077;1.673648;0.9271519;1.698409;-0.8660251;0.9999995;-0.8120087;0.9776838;
637946190365647277;375.0446;16;0;3.5;0.2;2;1699;2.06003531489111;-0.9848078;1.673648;-0.9682387;1.666054;0.9848077;1.673648;0.9271519;1.698409;
637946190373098248;375.7975;16;0;3.5;0.2;2;753;4.64807436918991;0.8660256;1;0.850455;1.098662;-0.9848078;1.673648;-0.9682387;1.666054;
637946190410719859;379.554;16;0;3.5;0.2;2;3756;0.931842385516507;-0.6427882;2.266044;-0.6742275;2.254666;0.8660256;1;0.850455;1.098662;
637946190437705911;382.2522;16;0;3.5;0.2;2;2698;1.29725722757598;0.3420205;0.5603075;0.3854593;0.6500391;-0.6427882;2.266044;-0.6742275;2.254666;
637946190536768101;392.159;16;0;3;0.2;1.4;3609;0.831255195344971;-0.2394138;0.8422151;-0.2459038;0.8206197;0;2.2;0.05948248;2.177665;
637946190556982630;394.1868;16;0;3;0.2;1.4;2028;1.4792899408284;0.4499513;2.036231;0.3967366;2.114112;-0.2394138;0.8422151;-0.2459038;0.8206197;
637946190579747728;396.4569;16;0;3;0.2;1.4;2270;1.3215859030837;-0.6062176;1.15;-0.6187323;1.200327;0.4499513;2.036231;0.3967366;2.114112;
637946190606733776;399.1556;16;0;3;0.2;1.4;2699;1.11152278621712;0.6893654;1.621554;0.6587226;1.647398;-0.6062176;1.15;-0.6187323;1.200327;
637946190626728255;401.1545;16;0;3;0.2;1.4;1999;1.50075037518759;-0.6893655;1.621553;-0.7142106;1.528452;0.6893654;1.621554;0.6587226;1.647398;
637946190648713181;403.3536;16;0;3;0.2;1.4;2199;1.36425648021828;0.6062179;1.15;0.5216043;1.134537;-0.6893655;1.621553;-0.7142106;1.528452;
637946190704803521;408.9623;16;0;3;0.2;1.4;5609;0.534854697807096;-0.4499517;2.036231;-0.4496969;2.038881;0.6062179;1.15;0.5216043;1.134537;
637946190716793725;410.1615;16;0;3;0.2;1.4;1199;2.50208507089241;0.2394144;0.8422153;0.2265835;0.789676;-0.4499517;2.036231;-0.4496969;2.038881;
637946190748780844;413.36;16;0;2.5;0.3;1.4;1999;1.25062531265633;-0.2394138;0.8422151;-0.2168208;0.8678399;0;2.2;-0.03453474;2.251595;
637946190763774201;414.8593;16;0;2.5;0.3;1.4;1499;1.66777851901268;0.4499513;2.036231;0.3865059;2.069286;-0.2394138;0.8422151;-0.2168208;0.8678399;
637946190825858109;421.0677;16;0;2.5;0.3;1.4;6208;0.40270618556701;-0.6062176;1.15;-0.5359696;1.184644;0.4499513;2.036231;0.3865059;2.069286;
637946190844852363;422.9669;16;0;2.5;0.3;1.4;1899;1.31648235913639;0.6893654;1.621554;0.6042324;1.610885;-0.6062176;1.15;-0.5359696;1.184644;
637946190870838184;425.5652;16;0;2.5;0.3;1.4;2598;0.962278675904542;-0.6893655;1.621553;-0.7339262;1.600873;0.6893654;1.621554;0.6042324;1.610885;
637946190887831991;427.2645;16;0;2.5;0.3;1.4;1699;1.47145379635079;0.6062179;1.15;0.6575142;1.24351;-0.6893655;1.621553;-0.7339262;1.600873;
637946190948915676;433.3731;16;0;2.5;0.3;1.4;6109;0.409232280242266;-0.4499517;2.036231;-0.4246091;2.051425;0.6062179;1.15;0.6575142;1.24351;
637946190966899702;435.172;16;0;2.5;0.3;1.4;1799;1.38966092273485;0.2394144;0.8422153;0.2853857;0.8485557;-0.4499517;2.036231;-0.4246091;2.051425;
637946190994885973;437.9707;16;0;2;0.6;1.8;1599;1.25078173858662;-0.3078177;0.6542765;-0.1922859;0.8002781;0;2.4;0.06300672;2.410077;
637946191007888885;439.2703;16;0;2;0.6;1.8;1300;1.53846153846154;0.5785087;2.18944;0.5704337;2.202753;-0.3078177;0.6542765;-0.1922859;0.8002781;
637946191021880945;440.6701;16;0;2;0.6;1.8;1400;1.42857142857143;-0.7794226;1.05;-0.7339228;1.118603;0.5785087;2.18944;0.5704337;2.202753;
637946191042870796;442.7685;16;0;2;0.6;1.8;2098;0.953288846520496;0.8863269;1.656283;0.7711006;1.591144;-0.7794226;1.05;-0.7339228;1.118603;
637946191063865856;444.8678;16;0;2;0.6;1.8;2099;0.952834683182468;-0.8863271;1.656283;-0.8316459;1.664137;0.8863269;1.656283;0.7711006;1.591144;
637946191076858865;446.167;16;0;2;0.6;1.8;1299;1.53964588144727;0.779423;1.05;0.8473749;1.146275;-0.8863271;1.656283;-0.8316459;1.664137;
637946191090848680;447.5663;16;0;2;0.6;1.8;1399;1.42959256611866;-0.5785094;2.18944;-0.5211287;2.085707;0.779423;1.05;0.8473749;1.146275;
637946191103843032;448.8659;16;0;2;0.6;1.8;1300;1.53846153846154;0.3078185;0.6542768;0.4510309;0.6947223;-0.5785094;2.18944;-0.5211287;2.085707;
637946191182920742;456.7736;16;0;4;0.1;1.4;5898;0.678195998643608;-0.2394138;0.8422151;-0.2259351;0.8042748;0;2.2;-0.03807767;2.177257;
637946191215898135;460.0715;16;0;4;0.1;1.4;3298;1.21285627653123;0.4499513;2.036231;0.4566555;2.044519;-0.2394138;0.8422151;-0.2259351;0.8042748;
637946191264989132;464.9805;16;0;4;0.1;1.4;4909;0.814829904257486;-0.6062176;1.15;-0.6108736;1.144086;0.4499513;2.036231;0.4566555;2.044519;
637946191306968534;469.1784;16;0;4;0.1;1.4;4198;0.952834683182468;0.6893654;1.621554;0.690968;1.63579;-0.6062176;1.15;-0.6108736;1.144086;
637946191339955928;472.4769;16;0;4;0.1;1.4;3299;1.21248863291907;-0.6893655;1.621553;-0.6941699;1.619289;0.6893654;1.621554;0.690968;1.63579;
637946191418027637;480.2845;16;0;4;0.1;1.4;7808;0.512295081967213;0.6062179;1.15;0.6058828;1.169051;-0.6893655;1.621553;-0.6941699;1.619289;
637946191642037676;502.6852;16;0;4;0.1;1.4;22401;0.178563456988527;-0.4499517;2.036231;-0.4004833;2.029817;0.6062179;1.15;0.6058828;1.169051;
637946192021190019;540.6009;16;0;4;0.1;1.4;37916;0.105496360375567;0.2394144;0.8422153;0.2451305;0.8502034;-0.4499517;2.036231;-0.4004833;2.029817;
637946192204335766;558.9148;16;0;4.5;0.1;2.2;3310;1.3595166163142;-0.3762217;0.4663379;-0.3786992;0.4984084;0;2.6;-0.009779219;2.550992;
637946192345267334;573.0081;16;0;4.5;0.1;2.2;14093;0.319307457603065;0.7070663;2.342649;0.706279;2.34446;-0.3762217;0.4663379;-0.3786992;0.4984084;
637946192432326838;581.715;16;0;4.5;0.1;2.2;8707;0.51682554266682;-0.9526277;0.9499994;-0.934231;0.9719781;0.7070663;2.342649;0.706279;2.34446;
637946192740413512;612.5229;16;0;4.5;0.1;2.2;30808;0.146065956894313;1.083289;1.691013;1.07875;1.68685;-0.9526277;0.9499994;-0.934231;0.9719781;
637946192905441947;629.0262;16;0;4.5;0.1;2.2;16503;0.272677694964552;-1.083289;1.691012;-1.085825;1.69816;1.083289;1.691013;1.07875;1.68685;
637946193533709405;691.8526;16;0;4.5;0.1;2.2;62826;0.0716263967147359;0.9526281;0.9500003;0.9464752;0.9555732;-1.083289;1.691012;-1.085825;1.69816;
637946193760712471;714.5533;16;0;4.5;0.1;2.2;22701;0.198229152900753;-0.7070671;2.342648;-0.7107099;2.361543;0.9526281;0.9500003;0.9464752;0.9555732;
637946194134875218;751.9691;16;0;4.5;0.1;2.2;37416;0.120269403463759;0.3762226;0.4663382;0.3979344;0.4883674;-0.7070671;2.342648;-0.7107099;2.361543;
637946196717007821;1010.182;16;1;4;0.1;1.4;2499;1.60064025610244;-0.2394138;0.8422151;-0.2275539;0.8492624;0;2.2;0.02048667;2.192462;
637946196729000506;1011.382;16;1;4;0.1;1.4;1200;3.33333333333333;0.4499513;2.036231;0.4311787;2.045106;-0.2394138;0.8422151;-0.2275539;0.8492624;
637946196765978787;1015.08;16;1;4;0.1;1.4;3698;1.08166576527853;-0.6062176;1.15;-0.5622611;1.142327;0.4499513;2.036231;0.4311787;2.045106;
637946196780972148;1016.579;16;1;4;0.1;1.4;1499;2.66844563042028;0.6893654;1.621554;0.7024875;1.614742;-0.6062176;1.15;-0.5622611;1.142327;
637946196796075528;1018.089;16;1;4;0.1;1.4;1510;2.64900662251656;-0.6893655;1.621553;-0.679888;1.608622;0.6893654;1.621554;0.7024875;1.614742;
637946196810078667;1019.489;16;1;4;0.1;1.4;1400;2.85714285714286;0.6062179;1.15;0.5800196;1.150898;-0.6893655;1.621553;-0.679888;1.608622;
637946196830063144;1021.488;16;1;4;0.1;1.4;1999;2.00100050025012;-0.4499517;2.036231;-0.456592;2.045891;0.6062179;1.15;0.5800196;1.150898;
637946196844376349;1022.927;16;1;4;0.1;1.4;1438;2.78164116828929;0.2394144;0.8422153;0.190728;0.8514993;-0.4499517;2.036231;-0.456592;2.045891;
637946196884033651;1026.885;16;1;4.5;0.1;2.2;2398;1.87656380316931;-0.3762217;0.4663379;-0.3544279;0.511011;0;2.6;-0.04103779;2.606523;
637946196899299309;1028.419;16;1;4.5;0.1;2.2;1534;2.93350717079531;0.7070663;2.342649;0.7441832;2.368725;-0.3762217;0.4663379;-0.3544279;0.511011;
637946196939010541;1032.383;16;1;4.5;0.1;2.2;3964;1.13521695257316;-0.9526277;0.9499994;-0.929715;0.9930055;0.7070663;2.342649;0.7441832;2.368725;
637946196953333747;1033.822;16;1;4.5;0.1;2.2;1439;3.12717164697707;1.083289;1.691013;1.113851;1.660648;-0.9526277;0.9499994;-0.929715;0.9930055;
637946196997103550;1038.192;16;1;4.5;0.1;2.2;4370;1.02974828375286;-1.083289;1.691012;-1.046347;1.665811;1.083289;1.691013;1.113851;1.660648;
637946197022089149;1040.691;16;1;4.5;0.1;2.2;2499;1.80072028811525;0.9526281;0.9500003;0.911224;0.9772071;-1.083289;1.691012;-1.046347;1.665811;
637946197039072953;1042.389;16;1;4.5;0.1;2.2;1699;2.64861683343143;-0.7070671;2.342648;-0.6938549;2.333131;0.9526281;0.9500003;0.911224;0.9772071;
637946197057066984;1044.189;16;1;4.5;0.1;2.2;1799;2.50138966092273;0.3762226;0.4663382;0.360192;0.5135512;-0.7070671;2.342648;-0.6938549;2.333131;
637946197093165073;1047.798;16;1;3;0.2;1.4;2710;1.1070110701107;-0.2394138;0.8422151;-0.2354886;0.9158472;0;2.2;0.0381529;2.265847;
637946197114149774;1049.897;16;1;3;0.2;1.4;2099;1.4292520247737;0.4499513;2.036231;0.3790633;2.047238;-0.2394138;0.8422151;-0.2354886;0.9158472;
637946197136144692;1052.096;16;1;3;0.2;1.4;2199;1.36425648021828;-0.6062176;1.15;-0.5683435;1.200962;0.4499513;2.036231;0.3790633;2.047238;
637946197155138957;1053.995;16;1;3;0.2;1.4;1899;1.57977883096367;0.6893654;1.621554;0.6217846;1.622476;-0.6062176;1.15;-0.5683435;1.200962;
637946197190114988;1057.494;16;1;3;0.2;1.4;3498;0.857632933104631;-0.6893655;1.621553;-0.690509;1.700769;0.6893654;1.621554;0.6217846;1.622476;
637946197198122542;1058.293;16;1;3;0.2;1.4;800;3.75;0.6062179;1.15;0.6806245;1.111168;-0.6893655;1.621553;-0.690509;1.700769;
637946197213105899;1059.793;16;1;3;0.2;1.4;1499;2.00133422281521;-0.4499517;2.036231;-0.3883207;2.026552;0.6062179;1.15;0.6806245;1.111168;
637946197243211896;1062.803;16;1;3;0.2;1.4;3010;0.996677740863787;0.2394144;0.8422153;0.1641743;0.7948612;-0.4499517;2.036231;-0.3883207;2.026552;
637946197266195457;1065.101;16;1;3.5;0.2;2;1399;2.50178699070765;-0.3420197;0.5603072;-0.3553122;0.5894516;0;2.5;0.07129541;2.45001;
637946197278304749;1066.312;16;1;3.5;0.2;2;1211;2.89017341040462;0.6427875;2.266045;0.6019536;2.300438;-0.3420197;0.5603072;-0.3553122;0.5894516;
637946197298290300;1068.311;16;1;3.5;0.2;2;1999;1.75087543771886;-0.8660251;0.9999995;-0.8369387;1.010479;0.6427875;2.266045;0.6019536;2.300438;
637946197314283892;1069.91;16;1;3.5;0.2;2;1599;2.18886804252658;0.9848077;1.673648;1.015045;1.700678;-0.8660251;0.9999995;-0.8369387;1.010479;
637946197333288141;1071.81;16;1;3.5;0.2;2;1900;1.84210526315789;-0.9848078;1.673648;-0.9594201;1.659;0.9848077;1.673648;1.015045;1.700678;
637946197345270828;1073.008;16;1;3.5;0.2;2;1198;2.92153589315526;0.8660256;1;0.913155;0.9583069;-0.9848078;1.673648;-0.9594201;1.659;
637946197361264401;1074.608;16;1;3.5;0.2;2;1599;2.18886804252658;-0.6427882;2.266044;-0.5640924;2.220975;0.8660256;1;0.913155;0.9583069;
637946197383579406;1076.846;16;1;3.5;0.2;2;2239;1.5631978561858;0.3420205;0.5603075;0.2474601;0.5381982;-0.6427882;2.266044;-0.5640924;2.220975;
637946197416346754;1080.117;16;1;2;0.6;1.8;1999;1.00050025012506;-0.3078177;0.6542765;-0.2031591;0.8837681;0;2.4;0.1245772;2.281411;
637946197432340340;1081.715;16;1;2;0.6;1.8;1599;1.25078173858662;0.5785087;2.18944;0.4840949;2.109966;-0.3078177;0.6542765;-0.2031591;0.8837681;
637946197443332794;1082.815;16;1;2;0.6;1.8;1100;1.81818181818182;-0.7794226;1.05;-0.6976843;1.254505;0.5785087;2.18944;0.4840949;2.109966;
637946197485452229;1087.027;16;1;2;0.6;1.8;4212;0.474833808167142;0.8863269;1.656283;0.8834768;1.681445;-0.7794226;1.05;-0.6976843;1.254505;
637946197498425134;1088.324;16;1;2;0.6;1.8;1297;1.5420200462606;-0.8863271;1.656283;-0.6802885;1.774666;0.8863269;1.656283;0.8834768;1.681445;
637946197511408041;1089.623;16;1;2;0.6;1.8;1299;1.53964588144727;0.779423;1.05;0.8754149;1.216505;-0.8863271;1.656283;-0.6802885;1.774666;
637946197520410057;1090.523;16;1;2;0.6;1.8;900;2.22222222222222;-0.5785094;2.18944;-0.4008796;2.185809;0.779423;1.05;0.8754149;1.216505;
637946197541514787;1092.633;16;1;2;0.6;1.8;2110;0.947867298578199;0.3078185;0.6542768;0.2372933;0.8446686;-0.5785094;2.18944;-0.4008796;2.185809;
637946197556508145;1094.132;16;1;1.5;1.1;2;800;1.875;-0.3420197;0.5603072;-0.390767;0.9150076;0;2.5;0.1625403;2.36027;
637946197570496445;1095.532;16;1;1.5;1.1;2;1399;1.07219442458899;0.6427875;2.266045;0.3161661;2.117553;-0.3420197;0.5603072;-0.390767;0.9150076;
637946197580488170;1096.531;16;1;1.5;1.1;2;999;1.5015015015015;-0.8660251;0.9999995;-0.7342007;1.474761;0.6427875;2.266045;0.3161661;2.117553;
637946197655459528;1104.027;16;1;1.5;1.1;2;7497;0.200080032012805;0.9848077;1.673648;0.8664172;1.87552;-0.8660251;0.9999995;-0.7342007;1.474761;
637946197662561436;1104.738;16;1;1.5;1.1;2;711;2.10970464135021;-0.9848078;1.673648;-0.5125282;1.862198;0.9848077;1.673648;0.8664172;1.87552;
637946197671555824;1105.638;16;1;1.5;1.1;2;899;1.66852057842047;0.8660256;1;0.8675491;1.165516;-0.9848078;1.673648;-0.5125282;1.862198;
637946197677557168;1106.237;16;1;1.5;1.1;2;600;2.5;-0.6427882;2.266044;-0.1895339;2.060023;0.8660256;1;0.8675491;1.165516;
637946197745522392;1113.034;16;1;1.5;1.1;2;6797;0.220685596586729;0.3420205;0.5603075;0.1282971;0.924057;-0.6427882;2.266044;-0.1895339;2.060023;
637946197776529341;1116.134;16;1;2.5;0.3;1.4;1501;1.6655562958028;-0.2394138;0.8422151;-0.2340997;0.8992026;0;2.2;-0.01701998;2.110784;
637946197787511800;1117.232;16;1;2.5;0.3;1.4;1098;2.27686703096539;0.4499513;2.036231;0.4569351;2.042544;-0.2394138;0.8422151;-0.2340997;0.8992026;
637946197800504711;1118.532;16;1;2.5;0.3;1.4;1300;1.92307692307692;-0.6062176;1.15;-0.5495337;1.174926;0.4499513;2.036231;0.4569351;2.042544;
637946197811607197;1119.642;16;1;2.5;0.3;1.4;1110;2.25225225225225;0.6893654;1.621554;0.5693829;1.601063;-0.6062176;1.15;-0.5495337;1.174926;
637946197820599212;1120.542;16;1;2.5;0.3;1.4;899;2.78086763070078;-0.6893655;1.621553;-0.757641;1.600451;0.6893654;1.621554;0.5693829;1.601063;
637946197836592794;1122.141;16;1;2.5;0.3;1.4;1599;1.56347717323327;0.6062179;1.15;0.5611885;1.252204;-0.6893655;1.621553;-0.757641;1.600451;
637946197847585255;1123.241;16;1;2.5;0.3;1.4;1100;2.27272727272727;-0.4499517;2.036231;-0.420909;2.109159;0.6062179;1.15;0.5611885;1.252204;
637946197855587052;1124.041;16;1;2.5;0.3;1.4;800;3.125;0.2394144;0.8422153;0.2282066;0.8238275;-0.4499517;2.036231;-0.420909;2.109159;
637946198816823492;1220.163;16;2;2;0.6;1.8;1000;2;-0.3078177;0.6542765;-0.1632085;0.7170184;0;2.4;-0.01109172;2.224103;
637946198823933482;1220.874;16;2;2;0.6;1.8;711;2.81293952180028;0.5785087;2.18944;0.4382341;1.959478;-0.3078177;0.6542765;-0.1632085;0.7170184;
637946198832925485;1221.773;16;2;2;0.6;1.8;899;2.22469410456062;-0.7794226;1.05;-0.8138046;0.9677823;0.5785087;2.18944;0.4382341;1.959478;
637946198851919740;1223.672;16;2;2;0.6;1.8;1899;1.05318588730911;0.8863269;1.656283;0.6808382;1.681173;-0.7794226;1.05;-0.8138046;0.9677823;
637946198859911530;1224.472;16;2;2;0.6;1.8;799;2.50312891113892;-0.8863271;1.656283;-0.6838565;1.680021;0.8863269;1.656283;0.6808382;1.681173;
637946198866030581;1225.083;16;2;2;0.6;1.8;611;3.27332242225859;0.779423;1.05;0.4939788;1.081842;-0.8863271;1.656283;-0.6838565;1.680021;
637946198875021201;1225.982;16;2;2;0.6;1.8;900;2.22222222222222;-0.5785094;2.18944;-0.3032947;2.149201;0.779423;1.05;0.4939788;1.081842;
637946198934997853;1231.979;16;2;2;0.6;1.8;5997;0.333500083375021;0.3078185;0.6542768;0.2179222;0.7942834;-0.5785094;2.18944;-0.3032947;2.149201;
637946198952407741;1233.728;16;2;3.5;0.2;2;848;4.12735849056604;-0.3420197;0.5603072;-0.4229666;0.5301942;0;2.5;-0.01863249;2.404963;
637946198968087285;1235.289;16;2;3.5;0.2;2;1561;2.24215246636771;0.6427875;2.266045;0.7034094;2.197968;-0.3420197;0.5603072;-0.4229666;0.5301942;
637946198978087184;1236.288;16;2;3.5;0.2;2;1000;3.5;-0.8660251;0.9999995;-0.7906169;0.9912648;0.6427875;2.266045;0.7034094;2.197968;
637946198999076962;1238.387;16;2;3.5;0.2;2;2099;1.66746069556932;0.9848077;1.673648;0.9197143;1.691888;-0.8660251;0.9999995;-0.7906169;0.9912648;
637946199009067351;1239.387;16;2;3.5;0.2;2;1000;3.5;-0.9848078;1.673648;-0.9736006;1.632698;0.9848077;1.673648;0.9197143;1.691888;
637946199027170342;1241.197;16;2;3.5;0.2;2;1810;1.93370165745856;0.8660256;1;0.8931819;1.096096;-0.9848078;1.673648;-0.9736006;1.632698;
637946199087143775;1247.195;16;2;3.5;0.2;2;5998;0.583527842614205;-0.6427882;2.266044;-0.6615252;2.284056;0.8660256;1;0.8931819;1.096096;
637946199098396294;1248.326;16;2;3.5;0.2;2;1131;3.09460654288241;0.3420205;0.5603075;0.3311709;0.6596186;-0.6427882;2.266044;-0.6615252;2.284056;
637946199261262779;1264.608;16;2;4;0.1;1.4;1099;3.63967242948135;-0.2394138;0.8422151;-0.2330148;0.8526264;0;2.2;0.02973308;2.174695;
637946199399309063;1278.413;16;2;4;0.1;1.4;13805;0.289750090546903;0.4499513;2.036231;0.4301356;2.048959;-0.2394138;0.8422151;-0.2330148;0.8526264;
637946199481391975;1286.621;16;2;4;0.1;1.4;8208;0.487329434697856;-0.6062176;1.15;-0.6171595;1.158411;0.4499513;2.036231;0.4301356;2.048959;
637946199516377701;1290.119;16;2;4;0.1;1.4;3499;1.14318376679051;0.6893654;1.621554;0.6733762;1.645525;-0.6062176;1.15;-0.6171595;1.158411;
637946199578341581;1296.316;16;2;4;0.1;1.4;6197;0.645473616265935;-0.6893655;1.621553;-0.7093117;1.617179;0.6893654;1.621554;0.6733762;1.645525;
637946199590334268;1297.515;16;2;4;0.1;1.4;1199;3.33611342785655;0.6062179;1.15;0.6374044;1.13776;-0.6893655;1.621553;-0.7093117;1.617179;
637946199717392729;1310.221;16;2;4;0.1;1.4;12705;0.314836678473042;-0.4499517;2.036231;-0.4378099;2.057135;0.6062179;1.15;0.6374044;1.13776;
637946199725384520;1311.02;16;2;4;0.1;1.4;799;5.00625782227785;0.2394144;0.8422153;0.2414995;0.8829068;-0.4499517;2.036231;-0.4378099;2.057135;
637946199933511514;1331.833;16;2;4.5;0.1;2.2;2910;1.54639175257732;-0.3762217;0.4663379;-0.417528;0.4816207;0;2.6;0.01214214;2.577248;
637946199959497335;1334.432;16;2;4.5;0.1;2.2;2599;1.73143516737207;0.7070663;2.342649;0.7112823;2.343912;-0.3762217;0.4663379;-0.417528;0.4816207;
637946199991594525;1337.641;16;2;4.5;0.1;2.2;3210;1.4018691588785;-0.9526277;0.9499994;-0.9436659;0.9568464;0.7070663;2.342649;0.7112823;2.343912;
637946200068561773;1345.338;16;2;4.5;0.1;2.2;7697;0.584643367545797;1.083289;1.691013;1.082272;1.737663;-0.9526277;0.9499994;-0.9436659;0.9568464;
637946200102549381;1348.736;16;2;4.5;0.1;2.2;3399;1.32391879964696;-1.083289;1.691012;-1.055331;1.677188;1.083289;1.691013;1.082272;1.737663;
637946200180617101;1356.543;16;2;4.5;0.1;2.2;7807;0.576405789675932;0.9526281;0.9500003;0.9313063;0.9739606;-1.083289;1.691012;-1.055331;1.677188;
637946200193617260;1357.843;16;2;4.5;0.1;2.2;1300;3.46153846153846;-0.7070671;2.342648;-0.7387012;2.328091;0.9526281;0.9500003;0.9313063;0.9739606;
637946200205608626;1359.042;16;2;4.5;0.1;2.2;1199;3.75312760633862;0.3762226;0.4663382;0.336928;0.4932691;-0.7070671;2.342648;-0.7387012;2.328091;
637946200263701651;1364.851;16;2;2.5;0.3;1.4;4009;0.623596906959341;-0.2394138;0.8422151;-0.2209385;0.8957508;0;2.2;-0.02350415;2.14136;
637946200285676565;1367.05;16;2;2.5;0.3;1.4;2199;1.1368804001819;0.4499513;2.036231;0.5161937;2.111443;-0.2394138;0.8422151;-0.2209385;0.8957508;
637946200312692616;1369.751;16;2;2.5;0.3;1.4;2701;0.925583117363939;-0.6062176;1.15;-0.5583022;1.202534;0.4499513;2.036231;0.5161937;2.111443;
637946200378747411;1376.357;16;2;2.5;0.3;1.4;6606;0.378443838934302;0.6893654;1.621554;0.6708178;1.628369;-0.6062176;1.15;-0.5583022;1.202534;
637946200387749432;1377.256;16;2;2.5;0.3;1.4;900;2.77777777777778;-0.6893655;1.621553;-0.7118879;1.575798;0.6893654;1.621554;0.6708178;1.628369;
637946200395741218;1378.056;16;2;2.5;0.3;1.4;800;3.125;0.6062179;1.15;0.6664717;1.281682;-0.6893655;1.621553;-0.7118879;1.575798;
637946200423727489;1380.854;16;2;2.5;0.3;1.4;2798;0.89349535382416;-0.4499517;2.036231;-0.4859176;2.043408;0.6062179;1.15;0.6664717;1.281682;
637946200455824680;1384.064;16;2;2.5;0.3;1.4;3210;0.778816199376947;0.2394144;0.8422153;0.1842133;0.8449619;-0.4499517;2.036231;-0.4859176;2.043408;
637946200477029434;1386.192;16;2;3;0.2;1.4;1129;2.65721877767936;-0.2394138;0.8422151;-0.31218;0.7923193;0;2.2;0.02828857;2.204129;
637946200486808042;1387.163;16;2;3;0.2;1.4;970;3.09278350515464;0.4499513;2.036231;0.4858416;1.96262;-0.2394138;0.8422151;-0.31218;0.7923193;
637946200495805893;1388.062;16;2;3;0.2;1.4;899;3.33704115684093;-0.6062176;1.15;-0.6459439;1.214488;0.4499513;2.036231;0.4858416;1.96262;
637946200508798804;1389.362;16;2;3;0.2;1.4;1300;2.30769230769231;0.6893654;1.621554;0.7598512;1.678203;-0.6062176;1.15;-0.6459439;1.214488;
637946200551783611;1393.66;16;2;3;0.2;1.4;4298;0.697999069334574;-0.6893655;1.621553;-0.7414702;1.609554;0.6893654;1.621554;0.7598512;1.678203;
637946200598870974;1398.369;16;2;3;0.2;1.4;4709;0.637077935867488;0.6062179;1.15;0.5351747;1.186527;-0.6893655;1.621553;-0.7414702;1.609554;
637946200610863661;1399.568;16;2;3;0.2;1.4;1199;2.50208507089241;-0.4499517;2.036231;-0.4193093;2.098727;0.6062179;1.15;0.5351747;1.186527;
637946200622856345;1400.768;16;2;3;0.2;1.4;1199;2.50208507089241;0.2394144;0.8422153;0.2453043;0.9359195;-0.4499517;2.036231;-0.4193093;2.098727;
637946200688821124;1407.364;16;2;1.5;1.1;2;3298;0.454821103699212;-0.3420197;0.5603072;-0.2544721;0.8427016;0;2.5;-0.02065549;2.414853;
637946200726919663;1411.174;16;2;1.5;1.1;2;3809;0.39380414807036;0.6427875;2.266045;0.659642;2.217793;-0.3420197;0.5603072;-0.2544721;0.8427016;
637946200735911670;1412.073;16;2;1.5;1.1;2;900;1.66666666666667;-0.8660251;0.9999995;-0.6665905;1.511622;0.6427875;2.266045;0.659642;2.217793;
637946200744913689;1412.973;16;2;1.5;1.1;2;900;1.66666666666667;0.9848077;1.673648;0.8541636;1.912828;-0.8660251;0.9999995;-0.6665905;1.511622;
637946200761907495;1414.672;16;2;1.5;1.1;2;1699;0.882872277810477;-0.9848078;1.673648;-0.9622985;1.663257;0.9848077;1.673648;0.8541636;1.912828;
637946200769899288;1415.472;16;2;1.5;1.1;2;799;1.87734668335419;0.8660256;1;0.8343492;1.493913;-0.9848078;1.673648;-0.9622985;1.663257;
637946200777891075;1416.271;16;2;1.5;1.1;2;800;1.875;-0.6427882;2.266044;-0.1547049;2.164888;0.8660256;1;0.8343492;1.493913;
637946200801886446;1418.67;16;2;1.5;1.1;2;2399;0.625260525218841;0.3420205;0.5603075;0.3960392;0.8373302;-0.6427882;2.266044;-0.1547049;2.164888;
637946202412376015;1579.718;16;3;2.5;0.3;1.4;1099;2.27479526842584;-0.2394138;0.8422151;-0.230532;0.9028788;0;2.2;0.03974868;2.132463;
637946202422368256;1580.717;16;3;2.5;0.3;1.4;1000;2.5;0.4499513;2.036231;0.4677617;2.031395;-0.2394138;0.8422151;-0.230532;0.9028788;
637946202466352392;1585.115;16;3;2.5;0.3;1.4;4398;0.56844020009095;-0.6062176;1.15;-0.5713871;1.181725;0.4499513;2.036231;0.4677617;2.031395;
637946202476364632;1586.116;16;3;2.5;0.3;1.4;1001;2.4975024975025;0.6893654;1.621554;0.5933381;1.662895;-0.6062176;1.15;-0.5713871;1.181725;
637946202490447788;1587.525;16;3;2.5;0.3;1.4;1409;1.77430801987225;-0.6893655;1.621553;-0.5668956;1.617788;0.6893654;1.621554;0.5933381;1.662895;
637946202505447233;1589.025;16;3;2.5;0.3;1.4;1500;1.66666666666667;0.6062179;1.15;0.4867873;1.239199;-0.6893655;1.621553;-0.5668956;1.617788;
637946202514442520;1589.924;16;3;2.5;0.3;1.4;900;2.77777777777778;-0.4499517;2.036231;-0.3107558;2.001708;0.6062179;1.15;0.4867873;1.239199;
637946202523434534;1590.824;16;3;2.5;0.3;1.4;900;2.77777777777778;0.2394144;0.8422153;0.2329856;0.9844546;-0.4499517;2.036231;-0.3107558;2.001708;
637946202549420355;1593.422;16;3;3.5;0.2;2;1760;1.98863636363636;-0.3420197;0.5603072;-0.2504669;0.598467;0;2.5;0.05251444;2.417227;
637946202565413936;1595.022;16;3;3.5;0.2;2;1599;2.18886804252658;0.6427875;2.266045;0.603439;2.25146;-0.3420197;0.5603072;-0.2504669;0.598467;
637946202576416407;1596.121;16;3;3.5;0.2;2;1100;3.18181818181818;-0.8660251;0.9999995;-0.7825808;1.014477;0.6427875;2.266045;0.603439;2.25146;
637946202586408640;1597.121;16;3;3.5;0.2;2;999;3.5035035035035;0.9848077;1.673648;0.9261758;1.605962;-0.8660251;0.9999995;-0.7825808;1.014477;
637946202604402669;1598.92;16;3;3.5;0.2;2;1799;1.94552529182879;-0.9848078;1.673648;-0.8886409;1.65823;0.9848077;1.673648;0.9261758;1.605962;
637946202638380279;1602.318;16;3;3.5;0.2;2;3398;1.03001765744556;0.8660256;1;0.8747215;1.055371;-0.9848078;1.673648;-0.8886409;1.65823;
637946202648492546;1603.329;16;3;3.5;0.2;2;1010;3.46534653465347;-0.6427882;2.266044;-0.5936124;2.273912;0.8660256;1;0.8747215;1.055371;
637946202662475680;1604.728;16;3;3.5;0.2;2;1399;2.50178699070765;0.3420205;0.5603075;0.3820289;0.6305842;-0.6427882;2.266044;-0.5936124;2.273912;
637946202685470829;1607.027;16;3;2;0.6;1.8;1500;1.33333333333333;-0.3078177;0.6542765;-0.1789958;0.8025763;0;2.4;0.1156017;2.268554;
637946202693532634;1607.827;16;3;2;0.6;1.8;800;2.5;0.5785087;2.18944;0.4144593;1.947227;-0.3078177;0.6542765;-0.1789958;0.8025763;
637946202710456426;1609.526;16;3;2;0.6;1.8;1699;1.17716303708064;-0.7794226;1.05;-0.7193624;1.213483;0.5785087;2.18944;0.4144593;1.947227;
637946202718448219;1610.326;16;3;2;0.6;1.8;800;2.5;0.8863269;1.656283;0.6083335;1.602397;-0.7794226;1.05;-0.7193624;1.213483;
637946202726450009;1611.125;16;3;2;0.6;1.8;800;2.5;-0.8863271;1.656283;-0.6263464;1.748367;0.8863269;1.656283;0.6083335;1.602397;
637946202745444263;1613.025;16;3;2;0.6;1.8;1899;1.05318588730911;0.779423;1.05;0.6828187;1.224627;-0.8863271;1.656283;-0.6263464;1.748367;
637946202761437855;1614.624;16;3;2;0.6;1.8;1599;1.25078173858662;-0.5785094;2.18944;-0.4812041;2.206884;0.779423;1.05;0.6828187;1.224627;
637946202769429638;1615.423;16;3;2;0.6;1.8;800;2.5;0.3078185;0.6542768;0.2561377;0.8493142;-0.5785094;2.18944;-0.4812041;2.206884;
637946202785423220;1617.022;16;3;1.5;1.1;2;799;1.87734668335419;-0.3420197;0.5603072;-0.2475162;0.9448278;0;2.5;0.1553733;2.345984;
637946202792420758;1617.722;16;3;1.5;1.1;2;700;2.14285714285714;0.6427875;2.266045;0.4320658;2.038463;-0.3420197;0.5603072;-0.2475162;0.9448278;
637946202799421305;1618.422;16;3;1.5;1.1;2;700;2.14285714285714;-0.8660251;0.9999995;-0.6058167;1.415358;0.6427875;2.266045;0.4320658;2.038463;
637946202805412650;1619.022;16;3;1.5;1.1;2;599;2.50417362270451;0.9848077;1.673648;0.5617645;1.79608;-0.8660251;0.9999995;-0.6058167;1.415358;
637946202811524018;1619.632;16;3;1.5;1.1;2;611;2.45499181669394;-0.9848078;1.673648;-0.6002349;1.879278;0.9848077;1.673648;0.5617645;1.79608;
637946202818525590;1620.333;16;3;1.5;1.1;2;700;2.14285714285714;0.8660256;1;0.9077851;1.510367;-0.9848078;1.673648;-0.6002349;1.879278;
637946202824515233;1620.932;16;3;1.5;1.1;2;599;2.50417362270451;-0.6427882;2.266044;-0.2882088;2.044221;0.8660256;1;0.9077851;1.510367;
637946202831896370;1621.677;16;3;1.5;1.1;2;745;2.01342281879195;0.3420205;0.5603075;0.646444;1.018312;-0.6427882;2.266044;-0.2882088;2.044221;
637946202885483930;1627.029;16;3;4.5;0.1;2.2;1799;2.50138966092273;-0.3762217;0.4663379;-0.3297974;0.4635653;0;2.6;0.01621177;2.601118;
637946203003540374;1638.835;16;3;4.5;0.1;2.2;11806;0.381162120955446;0.7070663;2.342649;0.7320718;2.32454;-0.3762217;0.4663379;-0.3297974;0.4635653;
637946203035527538;1642.033;16;3;4.5;0.1;2.2;3198;1.40712945590994;-0.9526277;0.9499994;-0.9292068;0.9823067;0.7070663;2.342649;0.7320718;2.32454;
637946203058522690;1644.332;16;3;4.5;0.1;2.2;2299;1.9573727707699;1.083289;1.691013;1.074992;1.693191;-0.9526277;0.9499994;-0.9292068;0.9823067;
637946203093500525;1647.831;16;3;4.5;0.1;2.2;3498;1.28644939965695;-1.083289;1.691012;-1.071565;1.674863;1.083289;1.691013;1.074992;1.693191;
637946203103502765;1648.83;16;3;4.5;0.1;2.2;999;4.5045045045045;0.9526281;0.9500003;0.9097127;0.9492804;-1.083289;1.691012;-1.071565;1.674863;
637946203115485454;1650.029;16;3;4.5;0.1;2.2;1199;3.75312760633862;-0.7070671;2.342648;-0.7004876;2.33756;0.9526281;0.9500003;0.9097127;0.9492804;
637946203159578540;1654.438;16;3;4.5;0.1;2.2;4409;1.02063960081651;0.3762226;0.4663382;0.3865581;0.4884659;-0.7070671;2.342648;-0.7004876;2.33756;
637946203192573215;1657.737;16;3;3;0.2;1.4;2399;1.25052105043768;-0.2394138;0.8422151;-0.2207651;0.8826307;0;2.2;-0.002031879;2.200755;
637946203202569513;1658.737;16;3;3;0.2;1.4;1000;3;0.4499513;2.036231;0.4249361;2.01875;-0.2394138;0.8422151;-0.2207651;0.8826307;
637946203213561970;1659.836;16;3;3;0.2;1.4;1099;2.72975432211101;-0.6062176;1.15;-0.6242228;1.176171;0.4499513;2.036231;0.4249361;2.01875;
637946203227555105;1661.236;16;3;3;0.2;1.4;1400;2.14285714285714;0.6893654;1.621554;0.6997414;1.662822;-0.6062176;1.15;-0.6242228;1.176171;
637946203236547118;1662.135;16;3;3;0.2;1.4;900;3.33333333333333;-0.6893655;1.621553;-0.7126236;1.630361;0.6893654;1.621554;0.6997414;1.662822;
637946203252540706;1663.734;16;3;3;0.2;1.4;1599;1.87617260787993;0.6062179;1.15;0.6018603;1.206591;-0.6893655;1.621553;-0.7126236;1.630361;
637946203263533166;1664.834;16;3;3;0.2;1.4;1100;2.72727272727273;-0.4499517;2.036231;-0.3986149;2.058992;0.6062179;1.15;0.6018603;1.206591;
637946203271644980;1665.644;16;3;3;0.2;1.4;811;3.69913686806412;0.2394144;0.8422153;0.2428357;0.8468386;-0.4499517;2.036231;-0.3986149;2.058992;
637946203291629462;1667.643;16;3;4;0.1;1.4;1099;3.63967242948135;-0.2394138;0.8422151;-0.229716;0.8847892;0;2.2;-0.01624813;2.225063;
637946203303622147;1668.843;16;3;4;0.1;1.4;1199;3.33611342785655;0.4499513;2.036231;0.4594789;2.012131;-0.2394138;0.8422151;-0.229716;0.8847892;
637946203316615054;1670.142;16;3;4;0.1;1.4;1299;3.07929176289453;-0.6062176;1.15;-0.5762055;1.165949;0.4499513;2.036231;0.4594789;2.012131;
637946203344611334;1672.941;16;3;4;0.1;1.4;2799;1.4290818149339;0.6893654;1.621554;0.6666447;1.588545;-0.6062176;1.15;-0.5762055;1.165949;
637946203396582973;1678.138;16;3;4;0.1;1.4;5197;0.769674812391765;-0.6893655;1.621553;-0.6745453;1.638113;0.6893654;1.621554;0.6666447;1.588545;
637946203418577902;1680.338;16;3;4;0.1;1.4;2199;1.81900864029104;0.6062179;1.15;0.6086559;1.187352;-0.6893655;1.621553;-0.6745453;1.638113;
637946203458666876;1684.347;16;3;4;0.1;1.4;4009;0.997755051134946;-0.4499517;2.036231;-0.4332086;2.020371;0.6062179;1.15;0.6086559;1.187352;
637946203479661581;1686.446;16;3;4;0.1;1.4;2099;1.90566936636494;0.2394144;0.8422153;0.2185805;0.8559378;-0.4499517;2.036231;-0.4332086;2.020371;
637946205072138837;1845.694;16;4;4.5;0.1;2.2;1399;3.21658327376698;-0.3762217;0.4663379;-0.4071389;0.4762319;0;2.6;0.005944001;2.580995;
637946205083521382;1846.839;16;4;4.5;0.1;2.2;1145;3.93013100436681;0.7070663;2.342649;0.697037;2.293665;-0.3762217;0.4663379;-0.4071389;0.4762319;
637946205101125331;1848.592;16;4;4.5;0.1;2.2;1753;2.56702795208214;-0.9526277;0.9499994;-0.92354;0.976709;0.7070663;2.342649;0.697037;2.293665;
637946205122230054;1850.703;16;4;4.5;0.1;2.2;2111;2.13169114163903;1.083289;1.691013;1.05184;1.717905;-0.9526277;0.9499994;-0.92354;0.976709;
637946205174091676;1855.889;16;4;4.5;0.1;2.2;5186;0.867720786733513;-1.083289;1.691012;-1.040779;1.685845;1.083289;1.691013;1.05184;1.717905;
637946205192191768;1857.7;16;4;4.5;0.1;2.2;1810;2.48618784530387;0.9526281;0.9500003;0.9381881;0.9936869;-1.083289;1.691012;-1.040779;1.685845;
637946205228176912;1861.298;16;4;4.5;0.1;2.2;3598;1.25069483046137;-0.7070671;2.342648;-0.6740628;2.319248;0.9526281;0.9500003;0.9381881;0.9936869;
637946205239474873;1862.435;16;4;4.5;0.1;2.2;1137;3.95778364116095;0.3762226;0.4663382;0.4205331;0.4843613;-0.7070671;2.342648;-0.6740628;2.319248;
637946205253546611;1863.842;16;4;2;0.6;1.8;701;2.85306704707561;-0.3078177;0.6542765;-0.2784255;0.9528325;0;2.4;0.1325312;2.134778;
637946205260158100;1864.496;16;4;2;0.6;1.8;654;3.05810397553517;0.5785087;2.18944;0.5060639;2.095744;-0.3078177;0.6542765;-0.2784255;0.9528325;
637946205275151457;1865.995;16;4;2;0.6;1.8;1499;1.33422281521014;-0.7794226;1.05;-0.5947196;1.242656;0.5785087;2.18944;0.5060639;2.095744;
637946205282153023;1866.695;16;4;2;0.6;1.8;700;2.85714285714286;0.8863269;1.656283;0.7018182;1.662014;-0.7794226;1.05;-0.5947196;1.242656;
637946205295145936;1867.995;16;4;2;0.6;1.8;1300;1.53846153846154;-0.8863271;1.656283;-0.8909614;1.703073;0.8863269;1.656283;0.7018182;1.662014;
637946205309252931;1869.405;16;4;2;0.6;1.8;1410;1.41843971631206;0.779423;1.05;0.6543862;1.301263;-0.8863271;1.656283;-0.8909614;1.703073;
637946205317242430;1870.205;16;4;2;0.6;1.8;800;2.5;-0.5785094;2.18944;-0.2925995;2.203347;0.779423;1.05;0.6543862;1.301263;
637946205326236168;1871.104;16;4;2;0.6;1.8;899;2.22469410456062;0.3078185;0.6542768;0.3589701;0.8975173;-0.5785094;2.18944;-0.2925995;2.203347;
637946205357223111;1874.203;16;4;2.5;0.3;1.4;2299;1.08742931709439;-0.2394138;0.8422151;-0.1993413;0.8499573;0;2.2;0.05184025;2.17285;
637946205365224907;1875.002;16;4;2.5;0.3;1.4;800;3.125;0.4499513;2.036231;0.4134893;2.077494;-0.2394138;0.8422151;-0.1993413;0.8499573;
637946205377217585;1876.202;16;4;2.5;0.3;1.4;1199;2.08507089241034;-0.6062176;1.15;-0.5878569;1.238352;0.4499513;2.036231;0.4134893;2.077494;
637946205392210946;1877.701;16;4;2.5;0.3;1.4;1500;1.66666666666667;0.6893654;1.621554;0.6107767;1.634022;-0.6062176;1.15;-0.5878569;1.238352;
637946205406204079;1879.1;16;4;2.5;0.3;1.4;1399;1.78699070764832;-0.6893655;1.621553;-0.8156673;1.584348;0.6893654;1.621554;0.6107767;1.634022;
637946205423197886;1880.8;16;4;2.5;0.3;1.4;1699;1.47145379635079;0.6062179;1.15;0.5815368;1.205574;-0.6893655;1.621553;-0.8156673;1.584348;
637946205433300147;1881.81;16;4;2.5;0.3;1.4;1011;2.47279920870425;-0.4499517;2.036231;-0.3974104;2.102779;0.6062179;1.15;0.5815368;1.205574;
637946205441301940;1882.61;16;4;2.5;0.3;1.4;800;3.125;0.2394144;0.8422153;0.3403669;0.8336248;-0.4499517;2.036231;-0.3974104;2.102779;
637946205466287537;1885.109;16;4;3;0.2;1.4;1654;1.81378476420798;-0.2394138;0.8422151;-0.2108416;0.8977337;0;2.2;0.03982408;2.272008;
637946205479280457;1886.408;16;4;3;0.2;1.4;1300;2.30769230769231;0.4499513;2.036231;0.3774468;2.010838;-0.2394138;0.8422151;-0.2108416;0.8977337;
637946205488272464;1887.308;16;4;3;0.2;1.4;899;3.33704115684093;-0.6062176;1.15;-0.5783641;1.159799;0.4499513;2.036231;0.3774468;2.010838;
637946205496274253;1888.108;16;4;3;0.2;1.4;800;3.75;0.6893654;1.621554;0.6445378;1.607094;-0.6062176;1.15;-0.5783641;1.159799;
637946205519259405;1890.406;16;4;3;0.2;1.4;2299;1.30491518051327;-0.6893655;1.621553;-0.617981;1.611691;0.6893654;1.621554;0.6445378;1.607094;
637946205535252986;1892.006;16;4;3;0.2;1.4;1599;1.87617260787993;0.6062179;1.15;0.5650981;1.222102;-0.6893655;1.621553;-0.617981;1.611691;
637946205587342631;1897.214;16;4;3;0.2;1.4;5208;0.576036866359447;-0.4499517;2.036231;-0.4293158;2.035793;0.6062179;1.15;0.5650981;1.222102;
637946205606330141;1899.113;16;4;3;0.2;1.4;1899;1.57977883096367;0.2394144;0.8422153;0.2959838;0.8836349;-0.4499517;2.036231;-0.4293158;2.035793;
637946205619324888;1900.413;16;4;1.5;1.1;2;600;2.5;-0.3420197;0.5603072;-0.08005995;0.9776583;0;2.5;0.1458536;2.177023;
637946205625326230;1901.013;16;4;1.5;1.1;2;600;2.5;0.6427875;2.266045;0.4086075;1.94588;-0.3420197;0.5603072;-0.08005995;0.9776583;
637946205638319142;1902.312;16;4;1.5;1.1;2;1300;1.15384615384615;-0.8660251;0.9999995;-0.5679958;1.305727;0.6427875;2.266045;0.4086075;1.94588;
637946205650311830;1903.511;16;4;1.5;1.1;2;1199;1.25104253544621;0.9848077;1.673648;0.5788787;1.745342;-0.8660251;0.9999995;-0.5679958;1.305727;
637946205657303399;1904.211;16;4;1.5;1.1;2;699;2.14592274678112;-0.9848078;1.673648;-0.515912;1.827015;0.9848077;1.673648;0.5788787;1.745342;
637946205668415885;1905.322;16;4;1.5;1.1;2;1111;1.35013501350135;0.8660256;1;0.5708836;1.450588;-0.9848078;1.673648;-0.515912;1.827015;
637946205675417453;1906.021;16;4;1.5;1.1;2;700;2.14285714285714;-0.6427882;2.266044;-0.1918309;2.102385;0.8660256;1;0.5708836;1.450588;
637946205687400132;1907.221;16;4;1.5;1.1;2;1199;1.25104253544621;0.3420205;0.5603075;0.5429213;1.001876;-0.6427882;2.266044;-0.1918309;2.102385;
637946205721477771;1910.628;16;4;3.5;0.2;2;2561;1.36665365091761;-0.3420197;0.5603072;-0.3321192;0.5988539;0;2.5;0.06454778;2.427802;
637946205732380214;1911.719;16;4;3.5;0.2;2;1091;3.20806599450046;0.6427875;2.266045;0.5478914;2.291451;-0.3420197;0.5603072;-0.3321192;0.5988539;
637946205741622282;1912.649;16;4;3.5;0.2;2;930;3.76344086021505;-0.8660251;0.9999995;-0.8784348;0.9073713;0.6427875;2.266045;0.5478914;2.291451;
637946205769348494;1915.417;16;4;3.5;0.2;2;2768;1.26445086705202;0.9848077;1.673648;0.9118626;1.679476;-0.8660251;0.9999995;-0.8784348;0.9073713;
637946205792333647;1917.716;16;4;3.5;0.2;2;2299;1.52240104393214;-0.9848078;1.673648;-0.9670818;1.672529;0.9848077;1.673648;0.9118626;1.679476;
637946205809447481;1919.426;16;4;3.5;0.2;2;1710;2.04678362573099;0.8660256;1;0.8805514;1.066397;-0.9848078;1.673648;-0.9670818;1.672529;
637946205818439492;1920.326;16;4;3.5;0.2;2;900;3.88888888888889;-0.6427882;2.266044;-0.685911;2.179183;0.8660256;1;0.8805514;1.066397;
637946205831432401;1921.625;16;4;3.5;0.2;2;1300;2.69230769230769;0.3420205;0.5603075;0.3656339;0.533872;-0.6427882;2.266044;-0.685911;2.179183;
637946205845425536;1923.025;16;4;4;0.1;1.4;800;5;-0.2394138;0.8422151;-0.24235;0.8524202;0;2.2;-0.003852788;2.223446;
637946205852417096;1923.724;16;4;4;0.1;1.4;699;5.72246065808298;0.4499513;2.036231;0.4734271;2.022884;-0.2394138;0.8422151;-0.24235;0.8524202;
637946205876412477;1926.123;16;4;4;0.1;1.4;2399;1.66736140058358;-0.6062176;1.15;-0.5944731;1.142735;0.4499513;2.036231;0.4734271;2.022884;
637946205894671431;1927.956;16;4;4;0.1;1.4;1833;2.18221494817239;0.6893654;1.621554;0.7249951;1.597319;-0.6062176;1.15;-0.5944731;1.142735;
637946205908394509;1929.321;16;4;4;0.1;1.4;1365;2.93040293040293;-0.6893655;1.621553;-0.7026553;1.602508;0.6893654;1.621554;0.7249951;1.597319;
637946205924388088;1930.921;16;4;4;0.1;1.4;1600;2.5;0.6062179;1.15;0.5967355;1.160555;-0.6893655;1.621553;-0.7026553;1.602508;
637946205941385932;1932.62;16;4;4;0.1;1.4;1699;2.35432607416127;-0.4499517;2.036231;-0.4505099;2.02077;0.6062179;1.15;0.5967355;1.160555;
637946205981476446;1936.629;16;4;4;0.1;1.4;4009;0.997755051134946;0.2394144;0.8422153;0.2549443;0.8647321;-0.4499517;2.036231;-0.4505099;2.02077;
637946206831652386;2021.645;16;5;2.5;0.3;1.4;700;3.57142857142857;-0.2394138;0.8422151;-0.09443784;0.8609756;0;2.2;0.04920713;2.167285;
637946206847645968;2023.245;16;5;2.5;0.3;1.4;1599;1.56347717323327;0.4499513;2.036231;0.3852526;2.014583;-0.2394138;0.8422151;-0.09443784;0.8609756;
637946206855647759;2024.044;16;5;2.5;0.3;1.4;800;3.125;-0.6062176;1.15;-0.7141534;1.178203;0.4499513;2.036231;0.3852526;2.014583;
637946206862639328;2024.744;16;5;2.5;0.3;1.4;699;3.57653791130186;0.6893654;1.621554;0.6298568;1.666459;-0.6062176;1.15;-0.7141534;1.178203;
637946206870631111;2025.543;16;5;2.5;0.3;1.4;800;3.125;-0.6893655;1.621553;-0.5695755;1.703985;0.6893654;1.621554;0.6298568;1.666459;
637946206890621995;2027.543;16;5;2.5;0.3;1.4;1999;1.25062531265633;0.6062179;1.15;0.5575649;1.197644;-0.6893655;1.621553;-0.5695755;1.703985;
637946206907725824;2029.253;16;5;2.5;0.3;1.4;1711;1.46113383985973;-0.4499517;2.036231;-0.5249095;1.966888;0.6062179;1.15;0.5575649;1.197644;
637946206916717836;2030.152;16;5;2.5;0.3;1.4;899;2.78086763070078;0.2394144;0.8422153;0.1962582;0.9639577;-0.4499517;2.036231;-0.5249095;1.966888;
637946206928830550;2031.363;16;5;1.5;1.1;2;611;2.45499181669394;-0.3420197;0.5603072;-0.06382398;0.986216;0;2.5;0.183307;2.109186;
637946206933711643;2031.851;16;5;1.5;1.1;2;488;3.07377049180328;0.6427875;2.266045;0.464995;1.948137;-0.3420197;0.5603072;-0.06382398;0.986216;
637946206939712987;2032.452;16;5;1.5;1.1;2;600;2.5;-0.8660251;0.9999995;-0.7332993;1.500986;0.6427875;2.266045;0.464995;1.948137;
637946206951025522;2033.59;16;5;1.5;1.1;2;1138;1.31810193321617;0.9848077;1.673648;0.4696366;1.864294;-0.8660251;0.9999995;-0.7332993;1.500986;
637946206957697015;2034.25;16;5;1.5;1.1;2;661;2.26928895612708;-0.9848078;1.673648;-0.5598524;1.917557;0.9848077;1.673648;0.4696366;1.864294;
637946206965698811;2035.05;16;5;1.5;1.1;2;800;1.875;0.8660256;1;0.7764482;1.531404;-0.9848078;1.673648;-0.5598524;1.917557;
637946206972690377;2035.75;16;5;1.5;1.1;2;700;2.14285714285714;-0.6427882;2.266044;-0.2276317;2.008852;0.8660256;1;0.7764482;1.531404;
637946206986693515;2037.149;16;5;1.5;1.1;2;1399;1.07219442458899;0.3420205;0.5603075;0.6429082;0.8884083;-0.6427882;2.266044;-0.2276317;2.008852;
637946207031876010;2041.669;16;5;3.5;0.2;2;2821;1.24069478908189;-0.3420197;0.5603072;-0.292587;0.5681534;0;2.5;0.002460796;2.459441;
637946207053860935;2043.868;16;5;3.5;0.2;2;2199;1.59163256025466;0.6427875;2.266045;0.5969172;2.25361;-0.3420197;0.5603072;-0.292587;0.5681534;
637946207072854498;2045.767;16;5;3.5;0.2;2;1899;1.84307530279094;-0.8660251;0.9999995;-0.7935624;1.010979;0.6427875;2.266045;0.5969172;2.25361;
637946207086845289;2047.166;16;5;3.5;0.2;2;1399;2.50178699070765;0.9848077;1.673648;0.8931305;1.663938;-0.8660251;0.9999995;-0.7935624;1.010979;
637946207094847085;2047.966;16;5;3.5;0.2;2;799;4.38047559449312;-0.9848078;1.673648;-1.005468;1.711802;0.9848077;1.673648;0.8931305;1.663938;
637946207113841340;2049.865;16;5;3.5;0.2;2;1899;1.84307530279094;0.8660256;1;0.8223627;1.032227;-0.9848078;1.673648;-1.005468;1.711802;
637946207139827161;2052.464;16;5;3.5;0.2;2;2599;1.34667179684494;-0.6427882;2.266044;-0.6041471;2.257299;0.8660256;1;0.8223627;1.032227;
637946207161812086;2054.663;16;5;3.5;0.2;2;2199;1.59163256025466;0.3420205;0.5603075;0.2936871;0.6289201;-0.6427882;2.266044;-0.6041471;2.257299;
637946207174804994;2055.963;16;5;2;0.6;1.8;600;3.33333333333333;-0.3078177;0.6542765;-0.09987119;0.8682941;0;2.4;0.1121029;2.355906;
637946207180916362;2056.573;16;5;2;0.6;1.8;611;3.27332242225859;0.5785087;2.18944;0.4299688;1.952288;-0.3078177;0.6542765;-0.09987119;0.8682941;
637946207189908381;2057.473;16;5;2;0.6;1.8;899;2.22469410456062;-0.7794226;1.05;-0.5982538;1.218344;0.5785087;2.18944;0.4299688;1.952288;
637946207210903083;2059.572;16;5;2;0.6;1.8;2099;0.952834683182468;0.8863269;1.656283;0.7207102;1.768156;-0.7794226;1.05;-0.5982538;1.218344;
637946207217904650;2060.272;16;5;2;0.6;1.8;700;2.85714285714286;-0.8863271;1.656283;-0.6091946;1.760502;0.8863269;1.656283;0.7207102;1.768156;
637946207244880694;2062.97;16;5;2;0.6;1.8;2698;0.741289844329133;0.779423;1.05;0.7976851;1.179754;-0.8863271;1.656283;-0.6091946;1.760502;
637946207251882264;2063.67;16;5;2;0.6;1.8;700;2.85714285714286;-0.5785094;2.18944;-0.3429225;2.033342;0.779423;1.05;0.7976851;1.179754;
637946207261874500;2064.669;16;5;2;0.6;1.8;999;2.002002002002;0.3078185;0.6542768;0.4153162;0.8920087;-0.5785094;2.18944;-0.3429225;2.033342;
637946207282869204;2066.769;16;5;4.5;0.1;2.2;865;5.20231213872832;-0.3762217;0.4663379;-0.3877477;0.49831;0;2.6;-0.03739489;2.567267;
637946207297862563;2068.268;16;5;4.5;0.1;2.2;1500;3;0.7070663;2.342649;0.7450427;2.33165;-0.3762217;0.4663379;-0.3877477;0.49831;
637946207324848610;2070.967;16;5;4.5;0.1;2.2;2698;1.66790214974055;-0.9526277;0.9499994;-0.9073926;0.9515066;0.7070663;2.342649;0.7450427;2.33165;
637946207339951991;2072.477;16;5;4.5;0.1;2.2;1510;2.98013245033113;1.083289;1.691013;1.060777;1.685191;-0.9526277;0.9499994;-0.9073926;0.9515066;
637946207363937361;2074.876;16;5;4.5;0.1;2.2;2399;1.87578157565652;-1.083289;1.691012;-1.091438;1.686743;1.083289;1.691013;1.060777;1.685191;
637946207380936213;2076.575;16;5;4.5;0.1;2.2;1699;2.64861683343143;0.9526281;0.9500003;0.9462227;0.9887013;-1.083289;1.691012;-1.091438;1.686743;
637946207400205575;2078.51;16;5;4.5;0.1;2.2;1935;2.32558139534884;-0.7070671;2.342648;-0.658954;2.329131;0.9526281;0.9500003;0.9462227;0.9887013;
637946207422910658;2080.773;16;5;4.5;0.1;2.2;2263;1.98851082633672;0.3762226;0.4663382;0.4114538;0.4823327;-0.7070671;2.342648;-0.658954;2.329131;
637946207456005827;2084.083;16;5;3;0.2;1.4;1299;2.3094688221709;-0.2394138;0.8422151;-0.2549717;0.8014985;0;2.2;-0.004325218;2.189077;
637946207472333286;2085.723;16;5;3;0.2;1.4;1640;1.82926829268293;0.4499513;2.036231;0.4103635;1.948896;-0.2394138;0.8422151;-0.2549717;0.8014985;
637946207489997245;2087.481;16;5;3;0.2;1.4;1759;1.70551449687322;-0.6062176;1.15;-0.6312188;1.138943;0.4499513;2.036231;0.4103635;1.948896;
637946207505990826;2089.08;16;5;3;0.2;1.4;1599;1.87617260787993;0.6893654;1.621554;0.5971912;1.606847;-0.6062176;1.15;-0.6312188;1.138943;
637946207522974631;2090.779;16;5;3;0.2;1.4;1699;1.76574455562095;-0.6893655;1.621553;-0.6891354;1.592533;0.6893654;1.621554;0.5971912;1.606847;
637946207532016649;2091.682;16;5;3;0.2;1.4;903;3.32225913621262;0.6062179;1.15;0.5341179;1.159887;-0.6893655;1.621553;-0.6891354;1.592533;
637946207540978658;2092.58;16;5;3;0.2;1.4;897;3.34448160535117;-0.4499517;2.036231;-0.363911;2.02269;0.6062179;1.15;0.5341179;1.159887;
637946207551961127;2093.678;16;5;3;0.2;1.4;1099;2.72975432211101;0.2394144;0.8422153;0.2043625;0.8686715;-0.4499517;2.036231;-0.363911;2.02269;
637946207580067421;2096.488;16;5;4;0.1;1.4;1260;3.17460317460317;-0.2394138;0.8422151;-0.2227465;0.8458225;0;2.2;-0.02484958;2.158222;
637946207589059436;2097.388;16;5;4;0.1;1.4;900;4.44444444444444;0.4499513;2.036231;0.4104508;2.018629;-0.2394138;0.8422151;-0.2227465;0.8458225;
637946207604052795;2098.887;16;5;4;0.1;1.4;1499;2.66844563042028;-0.6062176;1.15;-0.5895752;1.180024;0.4499513;2.036231;0.4104508;2.018629;
637946207638150431;2102.296;16;5;4;0.1;1.4;3409;1.17336462305661;0.6893654;1.621554;0.6864145;1.605986;-0.6062176;1.15;-0.5895752;1.180024;
637946207649472967;2103.437;16;5;4;0.1;1.4;1140;3.50877192982456;-0.6893655;1.621553;-0.7362047;1.633866;0.6893654;1.621554;0.6864145;1.605986;
637946207669137372;2105.395;16;5;4;0.1;1.4;1958;2.04290091930541;0.6062179;1.15;0.6198448;1.188427;-0.6893655;1.621553;-0.7362047;1.633866;
637946207683130507;2106.794;16;5;4;0.1;1.4;1399;2.85918513223731;-0.4499517;2.036231;-0.4433532;2.001451;0.6062179;1.15;0.6198448;1.188427;
637946207696123418;2108.094;16;5;4;0.1;1.4;1299;3.07929176289453;0.2394144;0.8422153;0.2080081;0.8596835;-0.4499517;2.036231;-0.4433532;2.001451;
637946208816502235;2220.131;16;6;3.5;0.2;2;2061;1.69820475497331;-0.3420197;0.5603072;-0.2825318;0.6190072;0;2.5;0.08137627;2.464893;
637946208837496930;2222.229;16;6;3.5;0.2;2;2099;1.66746069556932;0.6427875;2.266045;0.6786465;2.263427;-0.3420197;0.5603072;-0.2825318;0.6190072;
637946208846488948;2223.129;16;6;3.5;0.2;2;900;3.88888888888889;-0.8660251;0.9999995;-0.8268026;1.032113;0.6427875;2.266045;0.6786465;2.263427;
637946208854490740;2223.929;16;6;3.5;0.2;2;800;4.375;0.9848077;1.673648;1.003611;1.690728;-0.8660251;0.9999995;-0.8268026;1.032113;
637946208882467007;2226.728;16;6;3.5;0.2;2;2799;1.25044658806717;-0.9848078;1.673648;-0.96692;1.729288;0.9848077;1.673648;1.003611;1.690728;
637946208894469696;2227.927;16;6;3.5;0.2;2;1199;2.91909924937448;0.8660256;1;0.7857676;0.9836034;-0.9848078;1.673648;-0.96692;1.729288;
637946208903461707;2228.826;16;6;3.5;0.2;2;900;3.88888888888889;-0.6427882;2.266044;-0.5887192;2.297344;0.8660256;1;0.7857676;0.9836034;
637946208913463955;2229.826;16;6;3.5;0.2;2;1000;3.5;0.3420205;0.5603075;0.2442402;0.572655;-0.6427882;2.266044;-0.5887192;2.297344;
637946208926566888;2231.137;16;6;2;0.6;1.8;711;2.81293952180028;-0.3078177;0.6542765;-0.2103449;0.869704;0;2.4;0.06408382;2.265151;
637946208931558005;2231.636;16;6;2;0.6;1.8;500;4;0.5785087;2.18944;0.5567201;2.142781;-0.3078177;0.6542765;-0.2103449;0.869704;
637946208937669374;2232.247;16;6;2;0.6;1.8;611;3.27332242225859;-0.7794226;1.05;-0.8735655;1.234544;0.5785087;2.18944;0.5567201;2.142781;
637946208943550689;2232.836;16;6;2;0.6;1.8;588;3.40136054421769;0.8863269;1.656283;0.7699096;1.832881;-0.7794226;1.05;-0.8735655;1.234544;
637946208949552032;2233.436;16;6;2;0.6;1.8;600;3.33333333333333;-0.8863271;1.656283;-0.7020826;1.892114;0.8863269;1.656283;0.7699096;1.832881;
637946208956553601;2234.135;16;6;2;0.6;1.8;700;2.85714285714286;0.779423;1.05;0.7350752;1.14227;-0.8863271;1.656283;-0.7020826;1.892114;
637946208962544943;2234.735;16;6;2;0.6;1.8;600;3.33333333333333;-0.5785094;2.18944;-0.3720295;2.211042;0.779423;1.05;0.7350752;1.14227;
637946208968546288;2235.335;16;6;2;0.6;1.8;600;3.33333333333333;0.3078185;0.6542768;0.2719999;0.8710563;-0.5785094;2.18944;-0.3720295;2.211042;
637946209001533677;2238.633;16;6;4.5;0.1;2.2;1699;2.64861683343143;-0.3762217;0.4663379;-0.4214647;0.4561623;0;2.6;-0.01191555;2.59433;
637946209012776204;2239.764;16;6;4.5;0.1;2.2;1131;3.97877984084881;0.7070663;2.342649;0.6715645;2.377381;-0.3762217;0.4663379;-0.4214647;0.4561623;
637946209033511889;2241.832;16;6;4.5;0.1;2.2;2067;2.17706821480406;-0.9526277;0.9499994;-0.9209493;0.9637975;0.7070663;2.342649;0.6715645;2.377381;
637946209043514126;2242.831;16;6;4.5;0.1;2.2;1000;4.5;1.083289;1.691013;1.10688;1.673819;-0.9526277;0.9499994;-0.9209493;0.9637975;
637946209063498606;2244.83;16;6;4.5;0.1;2.2;1999;2.25112556278139;-1.083289;1.691012;-1.046429;1.700713;1.083289;1.691013;1.10688;1.673819;
637946209085910522;2247.078;16;6;4.5;0.1;2.2;2248;2.00177935943061;0.9526281;0.9500003;0.919663;0.9865556;-1.083289;1.691012;-1.046429;1.700713;
637946209106595619;2249.139;16;6;4.5;0.1;2.2;2061;2.18340611353712;-0.7070671;2.342648;-0.6875448;2.354366;0.9526281;0.9500003;0.919663;0.9865556;
637946209124589649;2250.939;16;6;4.5;0.1;2.2;1799;2.50138966092273;0.3762226;0.4663382;0.3558203;0.5109214;-0.7070671;2.342648;-0.6875448;2.354366;
637946209169562109;2255.437;16;6;4;0.1;1.4;2000;2;-0.2394138;0.8422151;-0.2212431;0.8775196;0;2.2;-0.01106548;2.157033;
637946209182565021;2256.736;16;6;4;0.1;1.4;1299;3.07929176289453;0.4499513;2.036231;0.4348155;2.03873;-0.2394138;0.8422151;-0.2212431;0.8775196;
637946209207560620;2259.237;16;6;4;0.1;1.4;2501;1.59936025589764;-0.6062176;1.15;-0.604264;1.139751;0.4499513;2.036231;0.4348155;2.03873;
637946209215912489;2260.08;16;6;4;0.1;1.4;843;4.74495848161329;0.6893654;1.621554;0.6412458;1.635138;-0.6062176;1.15;-0.604264;1.139751;
637946209228625333;2261.345;16;6;4;0.1;1.4;1265;3.16205533596838;-0.6893655;1.621553;-0.6907157;1.609019;0.6893654;1.621554;0.6412458;1.635138;
637946209246619364;2263.144;16;6;4;0.1;1.4;1799;2.22345747637576;0.6062179;1.15;0.6085647;1.19314;-0.6893655;1.621553;-0.6907157;1.609019;
637946209269824564;2265.472;16;6;4;0.1;1.4;2328;1.71821305841924;-0.4499517;2.036231;-0.4473854;1.987474;0.6062179;1.15;0.6085647;1.19314;
637946209290599218;2267.542;16;6;4;0.1;1.4;2070;1.93236714975845;0.2394144;0.8422153;0.2691424;0.825139;-0.4499517;2.036231;-0.4473854;1.987474;
637946209315584814;2270.04;16;6;3;0.2;1.4;799;3.75469336670839;-0.2394138;0.8422151;-0.2838017;0.8970402;0;2.2;0.01849704;2.215435;
637946209322586381;2270.74;16;6;3;0.2;1.4;700;4.28571428571429;0.4499513;2.036231;0.3989675;2.01719;-0.2394138;0.8422151;-0.2838017;0.8970402;
637946209346681781;2273.15;16;6;3;0.2;1.4;2410;1.2448132780083;-0.6062176;1.15;-0.5202687;1.201098;0.4499513;2.036231;0.3989675;2.01719;
637946209359674692;2274.45;16;6;3;0.2;1.4;1299;2.3094688221709;0.6893654;1.621554;0.6577398;1.652961;-0.6062176;1.15;-0.5202687;1.201098;
637946209367676488;2275.249;16;6;3;0.2;1.4;800;3.75;-0.6893655;1.621553;-0.6186479;1.591878;0.6893654;1.621554;0.6577398;1.652961;
637946209375678277;2276.049;16;6;3;0.2;1.4;800;3.75;0.6062179;1.15;0.5594084;1.147346;-0.6893655;1.621553;-0.6186479;1.591878;
637946209384670294;2276.949;16;6;3;0.2;1.4;900;3.33333333333333;-0.4499517;2.036231;-0.4145712;2.077628;0.6062179;1.15;0.5594084;1.147346;
637946209400873919;2278.577;16;6;3;0.2;1.4;1628;1.84275184275184;0.2394144;0.8422153;0.1830346;0.9247507;-0.4499517;2.036231;-0.4145712;2.077628;
637946209423649023;2280.846;16;6;2.5;0.3;1.4;1000;2.5;-0.2394138;0.8422151;-0.2653182;0.8741522;0;2.2;-0.01715531;2.142891;
637946209429650369;2281.446;16;6;2.5;0.3;1.4;600;4.16666666666667;0.4499513;2.036231;0.4593583;2.062781;-0.2394138;0.8422151;-0.2653182;0.8741522;
637946209437642155;2282.246;16;6;2.5;0.3;1.4;800;3.125;-0.6062176;1.15;-0.5771825;1.236791;0.4499513;2.036231;0.4593583;2.062781;
637946209452642869;2283.746;16;6;2.5;0.3;1.4;1499;1.66777851901268;0.6893654;1.621554;0.5477967;1.631904;-0.6062176;1.15;-0.5771825;1.236791;
637946209466636004;2285.145;16;6;2.5;0.3;1.4;1400;1.78571428571429;-0.6893655;1.621553;-0.6321486;1.623571;0.6893654;1.621554;0.5477967;1.631904;
637946209484620344;2286.944;16;6;2.5;0.3;1.4;1799;1.38966092273485;0.6062179;1.15;0.510872;1.231834;-0.6893655;1.621553;-0.6321486;1.623571;
637946209493732000;2287.854;16;6;2.5;0.3;1.4;911;2.74423710208562;-0.4499517;2.036231;-0.4021772;1.958763;0.6062179;1.15;0.510872;1.231834;
637946209508715598;2289.354;16;6;2.5;0.3;1.4;1499;1.66777851901268;0.2394144;0.8422153;0.2032617;0.8938854;-0.4499517;2.036231;-0.4021772;1.958763;
637946209521718580;2290.653;16;6;1.5;1.1;2;600;2.5;-0.3420197;0.5603072;-0.1195621;0.8805666;0;2.5;0.1602125;2.249871;
637946209527709921;2291.253;16;6;1.5;1.1;2;600;2.5;0.6427875;2.266045;0.5011905;1.892263;-0.3420197;0.5603072;-0.1195621;0.8805666;
637946209532981102;2291.787;16;6;1.5;1.1;2;534;2.80898876404494;-0.8660251;0.9999995;-0.555725;1.453638;0.6427875;2.266045;0.5011905;1.892263;
637946209544703728;2292.952;16;6;1.5;1.1;2;1165;1.28755364806867;0.9848077;1.673648;0.4851734;1.775941;-0.8660251;0.9999995;-0.555725;1.453638;
637946209550975135;2293.587;16;6;1.5;1.1;2;635;2.36220472440945;-0.9848078;1.673648;-0.4586315;1.831483;0.9848077;1.673648;0.4851734;1.775941;
637946209557696640;2294.251;16;6;1.5;1.1;2;665;2.25563909774436;0.8660256;1;0.6827;1.431001;-0.9848078;1.673648;-0.4586315;1.831483;
637946209564698205;2294.951;16;6;1.5;1.1;2;700;2.14285714285714;-0.6427882;2.266044;-0.2898891;2.144726;0.8660256;1;0.6827;1.431001;
637946209571689768;2295.651;16;6;1.5;1.1;2;700;2.14285714285714;0.3420205;0.5603075;0.2895123;1.055251;-0.6427882;2.266044;-0.2898891;2.144726;
637946210517941360;2390.274;16;7;2;0.6;1.8;600;3.33333333333333;-0.3078177;0.6542765;-0.1274389;0.8384379;0;2.4;0.08430678;2.272542;
637946210522938696;2390.774;16;7;2;0.6;1.8;500;4;0.5785087;2.18944;0.5185695;2.059505;-0.3078177;0.6542765;-0.1274389;0.8384379;
637946210539925771;2392.472;16;7;2;0.6;1.8;1699;1.17716303708064;-0.7794226;1.05;-0.5344431;1.223037;0.5785087;2.18944;0.5185695;2.059505;
637946210563914456;2394.872;16;7;2;0.6;1.8;2399;0.833680700291788;0.8863269;1.656283;0.6745431;1.624144;-0.7794226;1.05;-0.5344431;1.223037;
637946210577021364;2396.182;16;7;2;0.6;1.8;1311;1.5255530129672;-0.8863271;1.656283;-0.8277391;1.724795;0.8863269;1.656283;0.6745431;1.624144;
637946210585013058;2396.982;16;7;2;0.6;1.8;800;2.5;0.779423;1.05;0.7023252;1.257666;-0.8863271;1.656283;-0.8277391;1.724795;
637946210593016384;2397.781;16;7;2;0.6;1.8;800;2.5;-0.5785094;2.18944;-0.3197271;2.196086;0.779423;1.05;0.7023252;1.257666;
637946210601008178;2398.581;16;7;2;0.6;1.8;800;2.5;0.3078185;0.6542768;0.3874486;0.9345039;-0.5785094;2.18944;-0.3197271;2.196086;
637946210626993999;2401.18;16;7;3;0.2;1.4;1099;2.72975432211101;-0.2394138;0.8422151;-0.1427445;0.8676391;0;2.2;0.01153407;2.121173;
637946210639986908;2402.479;16;7;3;0.2;1.4;1299;2.3094688221709;0.4499513;2.036231;0.4555994;2.015612;-0.2394138;0.8422151;-0.1427445;0.8676391;
637946210657980939;2404.278;16;7;3;0.2;1.4;1799;1.66759310728182;-0.6062176;1.15;-0.5251698;1.153212;0.4499513;2.036231;0.4555994;2.015612;
637946210672974300;2405.778;16;7;3;0.2;1.4;1500;2;0.6893654;1.621554;0.7452296;1.59173;-0.6062176;1.15;-0.5251698;1.153212;
637946210687967655;2407.277;16;7;3;0.2;1.4;1499;2.00133422281521;-0.6893655;1.621553;-0.6768433;1.583774;0.6893654;1.621554;0.7452296;1.59173;
637946210696969667;2408.177;16;7;3;0.2;1.4;900;3.33333333333333;0.6062179;1.15;0.6016245;1.160468;-0.6893655;1.621553;-0.6768433;1.583774;
637946210706961910;2409.176;16;7;3;0.2;1.4;1000;3;-0.4499517;2.036231;-0.4030103;2.088157;0.6062179;1.15;0.6016245;1.160468;
637946210716964151;2410.177;16;7;3;0.2;1.4;1000;3;0.2394144;0.8422153;0.2388936;0.9403334;-0.4499517;2.036231;-0.4030103;2.088157;
637946210738058869;2412.286;16;7;3.5;0.2;2;1110;3.15315315315315;-0.3420197;0.5603072;-0.3069711;0.6499593;0;2.5;-0.0926467;2.501772;
637946210762044249;2414.685;16;7;3.5;0.2;2;2399;1.45894122551063;0.6427875;2.266045;0.6180985;2.237969;-0.3420197;0.5603072;-0.3069711;0.6499593;
637946210772046495;2415.684;16;7;3.5;0.2;2;1000;3.5;-0.8660251;0.9999995;-0.8559155;0.9179293;0.6427875;2.266045;0.6180985;2.237969;
637946210797022087;2418.183;16;7;3.5;0.2;2;2499;1.40056022408964;0.9848077;1.673648;0.980554;1.688558;-0.8660251;0.9999995;-0.8559155;0.9179293;
637946210807414409;2419.229;16;7;3.5;0.2;2;1046;3.34608030592734;-0.9848078;1.673648;-1.060183;1.607932;0.9848077;1.673648;0.980554;1.688558;
637946210822007674;2420.682;16;7;3.5;0.2;2;1453;2.40880935994494;0.8660256;1;0.8484526;1.063882;-0.9848078;1.673648;-1.060183;1.607932;
637946210836991037;2422.181;16;7;3.5;0.2;2;1499;2.33488992661775;-0.6427882;2.266044;-0.6472222;2.171637;0.8660256;1;0.8484526;1.063882;
637946210848983735;2423.38;16;7;3.5;0.2;2;1199;2.91909924937448;0.3420205;0.5603075;0.3048065;0.6213018;-0.6427882;2.266044;-0.6472222;2.171637;
637946210869118236;2425.393;16;7;2.5;0.3;1.4;1313;1.9040365575019;-0.2394138;0.8422151;-0.369984;0.8287642;0;2.2;0.06044554;2.253686;
637946210877085071;2426.191;16;7;2.5;0.3;1.4;797;3.13676286072773;0.4499513;2.036231;0.4763505;1.95633;-0.2394138;0.8422151;-0.369984;0.8287642;
637946210884084085;2426.89;16;7;2.5;0.3;1.4;699;3.57653791130186;-0.6062176;1.15;-0.6697482;1.174076;0.4499513;2.036231;0.4763505;1.95633;
637946210890085431;2427.49;16;7;2.5;0.3;1.4;600;4.16666666666667;0.6893654;1.621554;0.6292843;1.68431;-0.6062176;1.15;-0.6697482;1.174076;
637946210898077221;2428.289;16;7;2.5;0.3;1.4;800;3.125;-0.6893655;1.621553;-0.5690093;1.533067;0.6893654;1.621554;0.6292843;1.68431;
637946210912340416;2429.723;16;7;2.5;0.3;1.4;1433;1.74459176552687;0.6062179;1.15;0.5248513;1.27064;-0.6893655;1.621553;-0.5690093;1.533067;
637946210923061110;2430.788;16;7;2.5;0.3;1.4;1065;2.34741784037559;-0.4499517;2.036231;-0.4706131;1.976751;0.6062179;1.15;0.5248513;1.27064;
637946210936064787;2432.088;16;7;2.5;0.3;1.4;1300;1.92307692307692;0.2394144;0.8422153;0.2369463;0.853348;-0.4499517;2.036231;-0.4706131;1.976751;
637946210970038857;2435.486;16;7;4.5;0.1;2.2;1899;2.3696682464455;-0.3762217;0.4663379;-0.4028218;0.4739456;0;2.6;-0.02658875;2.557658;
637946211008137391;2439.295;16;7;4.5;0.1;2.2;3810;1.18110236220472;0.7070663;2.342649;0.6927692;2.34144;-0.3762217;0.4663379;-0.4028218;0.4739456;
637946211032122760;2441.694;16;7;4.5;0.1;2.2;2399;1.87578157565652;-0.9526277;0.9499994;-0.9215384;0.9881841;0.7070663;2.342649;0.6927692;2.34144;
637946211057118367;2444.193;16;7;4.5;0.1;2.2;2499;1.80072028811525;1.083289;1.691013;1.07533;1.667243;-0.9526277;0.9499994;-0.9215384;0.9881841;
637946211077102843;2446.192;16;7;4.5;0.1;2.2;1999;2.25112556278139;-1.083289;1.691012;-1.061785;1.682228;1.083289;1.691013;1.07533;1.667243;
637946211101088216;2448.591;16;7;4.5;0.1;2.2;2399;1.87578157565652;0.9526281;0.9500003;0.9530022;0.952336;-1.083289;1.691012;-1.061785;1.682228;
637946211120082466;2450.49;16;7;4.5;0.1;2.2;1899;2.3696682464455;-0.7070671;2.342648;-0.6834091;2.299329;0.9526281;0.9500003;0.9530022;0.952336;
637946211134085607;2451.89;16;7;4.5;0.1;2.2;1400;3.21428571428571;0.3762226;0.4663382;0.3857882;0.4616313;-0.7070671;2.342648;-0.6834091;2.299329;
637946211147192076;2453.2;16;7;1.5;1.1;2;610;2.45901639344262;-0.3420197;0.5603072;-0.008522384;0.845654;0;2.5;0.166302;2.230632;
637946211169183738;2455.4;16;7;1.5;1.1;2;2200;0.681818181818182;0.6427875;2.266045;0.534223;2.158422;-0.3420197;0.5603072;-0.008522384;0.845654;
637946211181181717;2456.599;16;7;1.5;1.1;2;1199;1.25104253544621;-0.8660251;0.9999995;-0.5347575;1.189409;0.6427875;2.266045;0.534223;2.158422;
637946211193164395;2457.798;16;7;1.5;1.1;2;1199;1.25104253544621;0.9848077;1.673648;0.6159217;1.670128;-0.8660251;0.9999995;-0.5347575;1.189409;
637946211200155964;2458.498;16;7;1.5;1.1;2;700;2.14285714285714;-0.9848078;1.673648;-0.6753185;1.723022;0.9848077;1.673648;0.6159217;1.670128;
637946211211158427;2459.598;16;7;1.5;1.1;2;1100;1.36363636363636;0.8660256;1;0.6757564;1.445318;-0.9848078;1.673648;-0.6753185;1.723022;
637946211218154244;2460.297;16;7;1.5;1.1;2;699;2.14592274678112;-0.6427882;2.266044;-0.4983713;2.04868;0.8660256;1;0.6757564;1.445318;
637946211224153233;2460.896;16;7;1.5;1.1;2;600;2.5;0.3420205;0.5603075;0.3452547;1.046171;-0.6427882;2.266044;-0.4983713;2.04868;
637946211244143576;2462.896;16;7;4;0.1;1.4;1199;3.33611342785655;-0.2394138;0.8422151;-0.2627057;0.8838956;0;2.2;0.04195245;2.172977;
637946211253138195;2463.795;16;7;4;0.1;1.4;899;4.44938820912125;0.4499513;2.036231;0.4657803;2.002831;-0.2394138;0.8422151;-0.2627057;0.8838956;
637946211268131549;2465.294;16;7;4;0.1;1.4;1500;2.66666666666667;-0.6062176;1.15;-0.5784873;1.163655;0.4499513;2.036231;0.4657803;2.002831;
637946211277233594;2466.205;16;7;4;0.1;1.4;911;4.39077936333699;0.6893654;1.621554;0.7252685;1.618218;-0.6062176;1.15;-0.5784873;1.163655;
637946211292226951;2467.704;16;7;4;0.1;1.4;1499;2.66844563042028;-0.6893655;1.621553;-0.7051241;1.596902;0.6893654;1.621554;0.7252685;1.618218;
637946211310441028;2469.533;16;7;4;0.1;1.4;1828;2.18818380743982;0.6062179;1.15;0.5829754;1.194272;-0.6893655;1.621553;-0.7051241;1.596902;
637946211337517092;2472.241;16;7;4;0.1;1.4;2708;1.47710487444609;-0.4499517;2.036231;-0.4236945;1.994432;0.6062179;1.15;0.5829754;1.194272;
637946211355411101;2474.03;16;7;4;0.1;1.4;1789;2.23588596981554;0.2394144;0.8422153;0.214388;0.8803201;-0.4499517;2.036231;-0.4236945;1.994432;
