637946236175339474;316.3292;17;0;2.5;0.3;1.4;2099;1.19104335397808;-0.2394138;0.8422151;-0.2129754;0.9113896;0;2.2;0.05604182;2.098151;
637946236182581096;317.0617;17;0;2.5;0.3;1.4;732;3.41530054644809;0.4499513;2.036231;0.3932618;1.906089;-0.2394138;0.8422151;-0.2129754;0.9113896;
637946236192613345;318.0651;17;0;2.5;0.3;1.4;1003;2.49252243270189;-0.6062176;1.15;-0.7362777;1.175539;0.4499513;2.036231;0.3932618;1.906089;
637946236202315517;319.028;17;0;2.5;0.3;1.4;963;2.59605399792316;0.6893654;1.621554;0.5692543;1.618173;-0.6062176;1.15;-0.7362777;1.175539;
637946236227311115;321.5267;17;0;2.5;0.3;1.4;2499;1.00040016006403;-0.6893655;1.621553;-0.5632182;1.575424;0.6893654;1.621554;0.5692543;1.618173;
637946236253296939;324.1258;17;0;2.5;0.3;1.4;2599;0.961908426317814;0.6062179;1.15;0.5585628;1.212448;-0.6893655;1.621553;-0.5632182;1.575424;
637946236275391888;326.3357;17;0;2.5;0.3;1.4;2210;1.13122171945701;-0.4499517;2.036231;-0.3801076;2.07591;0.6062179;1.15;0.5585628;1.212448;
637946236288394792;327.635;17;0;2.5;0.3;1.4;1299;1.92455735180908;0.2394144;0.8422153;0.2088225;0.9427445;-0.4499517;2.036231;-0.3801076;2.07591;
637946236310379725;329.8339;17;0;3;0.2;1.4;1199;2.50208507089241;-0.2394138;0.8422151;-0.1762122;0.9028306;0;2.2;0.01441111;2.19236;
637946236319371739;330.7336;17;0;3;0.2;1.4;900;3.33333333333333;0.4499513;2.036231;0.401025;2.021673;-0.2394138;0.8422151;-0.1762122;0.9028306;
637946236334365099;332.2326;17;0;3;0.2;1.4;1499;2.00133422281521;-0.6062176;1.15;-0.5381574;1.152532;0.4499513;2.036231;0.401025;2.021673;
637946236344367342;333.2325;17;0;3;0.2;1.4;1000;3;0.6893654;1.621554;0.6484895;1.600599;-0.6062176;1.15;-0.5381574;1.152532;
637946236355359800;334.3319;17;0;3;0.2;1.4;1099;2.72975432211101;-0.6893655;1.621553;-0.6375461;1.6213;0.6893654;1.621554;0.6484895;1.600599;
637946236378344951;336.6306;17;0;3;0.2;1.4;2299;1.30491518051327;0.6062179;1.15;0.5831928;1.155231;-0.6893655;1.621553;-0.6375461;1.6213;
637946236399339652;338.7302;17;0;3;0.2;1.4;2100;1.42857142857143;-0.4499517;2.036231;-0.3716352;1.982831;0.6062179;1.15;0.5831928;1.155231;
637946236423440192;341.1398;17;0;3;0.2;1.4;2410;1.2448132780083;0.2394144;0.8422153;0.2196698;0.9123311;-0.4499517;2.036231;-0.3716352;1.982831;
637946236451428852;343.9384;17;0;4;0.1;1.4;1599;2.50156347717323;-0.2394138;0.8422151;-0.2206853;0.8705879;0;2.2;0.004356151;2.185517;
637946236466420577;345.4379;17;0;4;0.1;1.4;1500;2.66666666666667;0.4499513;2.036231;0.4254831;2.003427;-0.2394138;0.8422151;-0.2206853;0.8705879;
637946236486409186;347.4366;17;0;4;0.1;1.4;1999;2.00100050025012;-0.6062176;1.15;-0.5664853;1.165227;0.4499513;2.036231;0.4254831;2.003427;
637946236498399386;348.6361;17;0;4;0.1;1.4;1200;3.33333333333333;0.6893654;1.621554;0.7350845;1.612861;-0.6062176;1.15;-0.5664853;1.165227;
637946236522388933;351.0352;17;0;4;0.1;1.4;2399;1.66736140058358;-0.6893655;1.621553;-0.654081;1.621629;0.6893654;1.621554;0.7350845;1.612861;
637946236532388921;352.0346;17;0;4;0.1;1.4;999;4.004004004004;0.6062179;1.15;0.6076459;1.128778;-0.6893655;1.621553;-0.654081;1.621629;
637946236561486856;354.9445;17;0;4;0.1;1.4;2910;1.3745704467354;-0.4499517;2.036231;-0.427552;2.027115;0.6062179;1.15;0.6076459;1.128778;
637946236577480441;356.5437;17;0;4;0.1;1.4;1599;2.50156347717323;0.2394144;0.8422153;0.2409912;0.8847041;-0.4499517;2.036231;-0.427552;2.027115;
637946236596464697;358.4426;17;0;1.5;1.1;2;1099;1.36487716105551;-0.3420197;0.5603072;-0.08143361;0.8853608;0;2.5;0.1327685;2.192734;
637946236605466714;359.3423;17;0;1.5;1.1;2;900;1.66666666666667;0.6427875;2.266045;0.3320739;2.05927;-0.3420197;0.5603072;-0.08143361;0.8853608;
637946236615458953;360.342;17;0;1.5;1.1;2;1000;1.5;-0.8660251;0.9999995;-0.6456071;1.315439;0.6427875;2.266045;0.3320739;2.05927;
637946236623450737;361.1415;17;0;1.5;1.1;2;799;1.87734668335419;0.9848077;1.673648;0.5279524;1.566005;-0.8660251;0.9999995;-0.6456071;1.315439;
637946236653447453;364.1404;17;0;1.5;1.1;2;2999;0.500166722240747;-0.9848078;1.673648;-0.5364968;1.694316;0.9848077;1.673648;0.5279524;1.566005;
637946236670541287;365.8506;17;0;1.5;1.1;2;1710;0.87719298245614;0.8660256;1;0.6640891;1.438649;-0.9848078;1.673648;-0.5364968;1.694316;
637946236679543306;366.7501;17;0;1.5;1.1;2;900;1.66666666666667;-0.6427882;2.266044;-0.3346353;2.020412;0.8660256;1;0.6640891;1.438649;
637946236687535093;367.5497;17;0;1.5;1.1;2;800;1.875;0.3420205;0.5603075;0.1549252;1.02861;-0.6427882;2.266044;-0.3346353;2.020412;
637946236720522482;370.8483;17;0;2;0.6;1.8;1499;1.33422281521014;-0.3078177;0.6542765;-0.1182715;0.8521386;0;2.4;0.06725001;2.227057;
637946236733515399;372.1475;17;0;2;0.6;1.8;1299;1.53964588144727;0.5785087;2.18944;0.5169634;2.171941;-0.3078177;0.6542765;-0.1182715;0.8521386;
637946236746508308;373.4467;17;0;2;0.6;1.8;1299;1.53964588144727;-0.7794226;1.05;-0.6597714;1.222972;0.5785087;2.18944;0.5169634;2.171941;
637946236756510547;374.4467;17;0;2;0.6;1.8;1000;2;0.8863269;1.656283;0.940309;1.695284;-0.7794226;1.05;-0.6597714;1.222972;
637946236771493901;375.9457;17;0;2;0.6;1.8;1499;1.33422281521014;-0.8863271;1.656283;-0.7424894;1.661735;0.8863269;1.656283;0.940309;1.695284;
637946236780495917;376.8453;17;0;2;0.6;1.8;900;2.22222222222222;0.779423;1.05;0.6738925;1.229666;-0.8863271;1.656283;-0.7424894;1.661735;
637946236791488379;377.9449;17;0;2;0.6;1.8;1100;1.81818181818182;-0.5785094;2.18944;-0.4068515;2.079034;0.779423;1.05;0.6738925;1.229666;
637946236801480615;378.9444;17;0;2;0.6;1.8;999;2.002002002002;0.3078185;0.6542768;0.2061347;0.7661055;-0.5785094;2.18944;-0.4068515;2.079034;
637946236825589824;381.3545;17;0;4.5;0.1;2.2;1100;4.09090909090909;-0.3762217;0.4663379;-0.3403831;0.5008643;0;2.6;0.01240368;2.586396;
637946236834941918;382.298;17;0;4.5;0.1;2.2;944;4.76694915254237;0.7070663;2.342649;0.7019542;2.294355;-0.3762217;0.4663379;-0.3403831;0.5008643;
637946236846574526;383.4534;17;0;4.5;0.1;2.2;1155;3.8961038961039;-0.9526277;0.9499994;-0.9402444;0.9198151;0.7070663;2.342649;0.7019542;2.294355;
637946236864568560;385.2526;17;0;4.5;0.1;2.2;1799;2.50138966092273;1.083289;1.691013;1.0701;1.650753;-0.9526277;0.9499994;-0.9402444;0.9198151;
637946236874565257;386.2521;17;0;4.5;0.1;2.2;999;4.5045045045045;-1.083289;1.691012;-1.046949;1.699144;1.083289;1.691013;1.0701;1.650753;
637946236885551195;387.3515;17;0;4.5;0.1;2.2;1099;4.09463148316652;0.9526281;0.9500003;0.9218504;0.9269863;-1.083289;1.691012;-1.046949;1.699144;
637946236924539940;391.2501;17;0;4.5;0.1;2.2;3899;1.1541420877148;-0.7070671;2.342648;-0.678027;2.321595;0.9526281;0.9500003;0.9218504;0.9269863;
637946236940533514;392.8492;17;0;4.5;0.1;2.2;1599;2.81425891181989;0.3762226;0.4663382;0.3596337;0.5133712;-0.7070671;2.342648;-0.678027;2.321595;
637946236960638020;394.8594;17;0;3.5;0.2;2;1011;3.46191889218595;-0.3420197;0.5603072;-0.2710473;0.6302173;0;2.5;0.05611426;2.43756;
637946236973630937;396.1588;17;0;3.5;0.2;2;1299;2.69438029253272;0.6427875;2.266045;0.6171515;2.218422;-0.3420197;0.5603072;-0.2710473;0.6302173;
637946236985623614;397.358;17;0;3.5;0.2;2;1199;2.91909924937448;-0.8660251;0.9999995;-0.9367085;1.007031;0.6427875;2.266045;0.6171515;2.218422;
637946236999616751;398.7575;17;0;3.5;0.2;2;1399;2.50178699070765;0.9848077;1.673648;0.8984119;1.637691;-0.8660251;0.9999995;-0.9367085;1.007031;
637946237020601451;400.8563;17;0;3.5;0.2;2;2099;1.66746069556932;-0.9848078;1.673648;-0.9386787;1.710012;0.9848077;1.673648;0.8984119;1.637691;
637946237038595484;402.6555;17;0;3.5;0.2;2;1799;1.94552529182879;0.8660256;1;0.797879;1.062805;-0.9848078;1.673648;-0.9386787;1.710012;
637946237071582869;405.9541;17;0;3.5;0.2;2;3299;1.06092755380418;-0.6427882;2.266044;-0.5935639;2.26997;0.8660256;1;0.797879;1.062805;
637946237087576452;407.5533;17;0;3.5;0.2;2;1599;2.18886804252658;0.3420205;0.5603075;0.2959965;0.5893127;-0.6427882;2.266044;-0.5935639;2.26997;
637946238340005556;532.795;17;1;4.5;0.1;2.2;2599;1.73143516737207;-0.3762217;0.4663379;-0.3664643;0.4641832;0;2.6;0.01225408;2.570439;
637946238361991519;534.9941;17;1;4.5;0.1;2.2;2199;2.04638472032742;0.7070663;2.342649;0.7038668;2.326842;-0.3762217;0.4663379;-0.3664643;0.4641832;
637946238374994434;536.2935;17;1;4.5;0.1;2.2;1299;3.46420323325635;-0.9526277;0.9499994;-0.9316263;0.9938238;0.7070663;2.342649;0.7038668;2.326842;
637946238387987345;537.593;17;1;4.5;0.1;2.2;1299;3.46420323325635;1.083289;1.691013;1.079432;1.688608;-0.9526277;0.9499994;-0.9316263;0.9938238;
637946238400340110;538.8359;17;1;4.5;0.1;2.2;1243;3.62027353177796;-1.083289;1.691012;-1.081135;1.646144;1.083289;1.691013;1.079432;1.688608;
637946238428075363;541.6022;17;1;4.5;0.1;2.2;2766;1.62689804772234;0.9526281;0.9500003;0.9208197;0.9791113;-1.083289;1.691012;-1.081135;1.646144;
637946238446073860;543.4017;17;1;4.5;0.1;2.2;1799;2.50138966092273;-0.7070671;2.342648;-0.6963435;2.344555;0.9526281;0.9500003;0.9208197;0.9791113;
637946238467068566;545.5009;17;1;4.5;0.1;2.2;2099;2.14387803716055;0.3762226;0.4663382;0.3991058;0.4790572;-0.7070671;2.342648;-0.6963435;2.344555;
637946238484052365;547.1996;17;1;1.5;1.1;2;900;1.66666666666667;-0.3420197;0.5603072;-0.1121408;0.803678;0;2.5;0.1779505;2.158554;
637946238499045731;548.699;17;1;1.5;1.1;2;1499;1.00066711140761;0.6427875;2.266045;0.4144999;2.04228;-0.3420197;0.5603072;-0.1121408;0.803678;
637946238509037967;549.6985;17;1;1.5;1.1;2;1000;1.5;-0.8660251;0.9999995;-0.5741695;1.268947;0.6427875;2.266045;0.4144999;2.04228;
637946238517029750;550.4979;17;1;1.5;1.1;2;799;1.87734668335419;0.9848077;1.673648;0.6947367;1.548165;-0.8660251;0.9999995;-0.5741695;1.268947;
637946238529032447;551.6978;17;1;1.5;1.1;2;1200;1.25;-0.9848078;1.673648;-0.5739101;1.679736;0.9848077;1.673648;0.6947367;1.548165;
637946238537134261;552.5083;17;1;1.5;1.1;2;811;1.84956843403206;0.8660256;1;0.5352111;1.277658;-0.9848078;1.673648;-0.5739101;1.679736;
637946238544135825;553.2078;17;1;1.5;1.1;2;699;2.14592274678112;-0.6427882;2.266044;-0.2286601;1.92175;0.8660256;1;0.5352111;1.277658;
637946238553127842;554.1074;17;1;1.5;1.1;2;900;1.66666666666667;0.3420205;0.5603075;0.09396781;1.013146;-0.6427882;2.266044;-0.2286601;1.92175;
637946238579123665;556.7065;17;1;3.5;0.2;2;1499;2.33488992661775;-0.3420197;0.5603072;-0.3372652;0.6118132;0;2.5;0.04754094;2.447661;
637946238588115679;557.6061;17;1;3.5;0.2;2;900;3.88888888888889;0.6427875;2.266045;0.6190605;2.199939;-0.3420197;0.5603072;-0.3372652;0.6118132;
637946238606109714;559.4053;17;1;3.5;0.2;2;1799;1.94552529182879;-0.8660251;0.9999995;-0.7741194;1.030236;0.6427875;2.266045;0.6190605;2.199939;
637946238617102172;560.5046;17;1;3.5;0.2;2;1099;3.18471337579618;0.9848077;1.673648;0.9722731;1.676087;-0.8660251;0.9999995;-0.7741194;1.030236;
637946238629094864;561.7039;17;1;3.5;0.2;2;1199;2.91909924937448;-0.9848078;1.673648;-0.9376526;1.641615;0.9848077;1.673648;0.9722731;1.676087;
637946238650079561;563.8029;17;1;3.5;0.2;2;2099;1.66746069556932;0.8660256;1;0.8332999;0.9968238;-0.9848078;1.673648;-0.9376526;1.641615;
637946238664082695;565.2021;17;1;3.5;0.2;2;1399;2.50178699070765;-0.6427882;2.266044;-0.5534395;2.238844;0.8660256;1;0.8332999;0.9968238;
637946238684067174;567.2015;17;1;3.5;0.2;2;1999;1.75087543771886;0.3420205;0.5603075;0.3294113;0.6350899;-0.6427882;2.266044;-0.5534395;2.238844;
637946238724146150;571.2105;17;1;4;0.1;1.4;1999;2.00100050025012;-0.2394138;0.8422151;-0.2191754;0.8590927;0;2.2;0.01704817;2.178596;
637946238746138904;573.4093;17;1;4;0.1;1.4;2199;1.81900864029104;0.4499513;2.036231;0.4586195;2.016106;-0.2394138;0.8422151;-0.2191754;0.8590927;
637946238761138180;574.9097;17;1;4;0.1;1.4;1500;2.66666666666667;-0.6062176;1.15;-0.6142387;1.12814;0.4499513;2.036231;0.4586195;2.016106;
637946238780112431;576.8076;17;1;4;0.1;1.4;1898;2.10748155953635;0.6893654;1.621554;0.6777495;1.587528;-0.6062176;1.15;-0.6142387;1.12814;
637946238804110913;579.2067;17;1;4;0.1;1.4;2399;1.66736140058358;-0.6893655;1.621553;-0.6938037;1.620077;0.6893654;1.621554;0.6777495;1.587528;
637946238822205061;581.0169;17;1;4;0.1;1.4;1810;2.20994475138122;0.6062179;1.15;0.6007017;1.158139;-0.6893655;1.621553;-0.6938037;1.620077;
637946238847203445;583.5159;17;1;4;0.1;1.4;2499;1.60064025610244;-0.4499517;2.036231;-0.4580311;2.077368;0.6062179;1.15;0.6007017;1.158139;
637946238860446420;584.8484;17;1;4;0.1;1.4;1333;3.00075018754689;0.2394144;0.8422153;0.2774547;0.8746816;-0.4499517;2.036231;-0.4580311;2.077368;
637946238878180389;586.6144;17;1;2;0.6;1.8;999;2.002002002002;-0.3078177;0.6542765;-0.1609708;0.7730627;0;2.4;0.01564452;2.210716;
637946238900175318;588.8132;17;1;2;0.6;1.8;2199;0.909504320145521;0.5785087;2.18944;0.4878982;2.164618;-0.3078177;0.6542765;-0.1609708;0.7730627;
637946238910167550;589.8126;17;1;2;0.6;1.8;999;2.002002002002;-0.7794226;1.05;-0.9486684;1.119161;0.5785087;2.18944;0.4878982;2.164618;
637946238926161137;591.4121;17;1;2;0.6;1.8;1600;1.25;0.8863269;1.656283;0.6735962;1.659611;-0.7794226;1.05;-0.9486684;1.119161;
637946238935163154;592.3118;17;1;2;0.6;1.8;900;2.22222222222222;-0.8863271;1.656283;-0.7802112;1.65907;0.8863269;1.656283;0.6735962;1.659611;
637946238945155395;593.3111;17;1;2;0.6;1.8;999;2.002002002002;0.779423;1.05;0.7079911;1.236526;-0.8863271;1.656283;-0.7802112;1.65907;
637946238955147630;594.3109;17;1;2;0.6;1.8;1000;2;-0.5785094;2.18944;-0.3619602;2.000573;0.779423;1.05;0.7079911;1.236526;
637946238964249670;595.2214;17;1;2;0.6;1.8;910;2.1978021978022;0.3078185;0.6542768;0.1170656;0.8333497;-0.5785094;2.18944;-0.3619602;2.000573;
637946238995236611;598.3202;17;1;3;0.2;1.4;1999;1.50075037518759;-0.2394138;0.8422151;-0.2434989;0.9421312;0;2.2;0.02630798;2.175925;
637946239013230642;600.1191;17;1;3;0.2;1.4;1799;1.66759310728182;0.4499513;2.036231;0.3860125;1.964605;-0.2394138;0.8422151;-0.2434989;0.9421312;
637946239023222881;601.1187;17;1;3;0.2;1.4;1000;3;-0.6062176;1.15;-0.6350148;1.226933;0.4499513;2.036231;0.3860125;1.964605;
637946239039216462;602.7179;17;1;3;0.2;1.4;1599;1.87617260787993;0.6893654;1.621554;0.6340724;1.602987;-0.6062176;1.15;-0.6350148;1.226933;
637946239053219600;604.1181;17;1;3;0.2;1.4;1400;2.14285714285714;-0.6893655;1.621553;-0.6579896;1.553715;0.6893654;1.621554;0.6340724;1.602987;
637946239065212287;605.3168;17;1;3;0.2;1.4;1199;2.50208507089241;0.6062179;1.15;0.5636307;1.231502;-0.6893655;1.621553;-0.6579896;1.553715;
637946239074204302;606.2166;17;1;3;0.2;1.4;900;3.33333333333333;-0.4499517;2.036231;-0.4219489;1.994761;0.6062179;1.15;0.5636307;1.231502;
637946239095199006;608.3155;17;1;3;0.2;1.4;2099;1.4292520247737;0.2394144;0.8422153;0.2204434;0.8984511;-0.4499517;2.036231;-0.4219489;1.994761;
637946239135292518;612.3248;17;1;2.5;0.3;1.4;1300;1.92307692307692;-0.2394138;0.8422151;-0.2342341;0.7671311;0;2.2;0.02005504;2.181034;
637946239145290464;613.3246;17;1;2.5;0.3;1.4;1000;2.5;0.4499513;2.036231;0.4334153;1.981969;-0.2394138;0.8422151;-0.2342341;0.7671311;
637946239165275067;615.3234;17;1;2.5;0.3;1.4;1999;1.25062531265633;-0.6062176;1.15;-0.5051399;1.216006;0.4499513;2.036231;0.4334153;1.981969;
637946239181268650;616.9228;17;1;2.5;0.3;1.4;1599;1.56347717323327;0.6893654;1.621554;0.6408702;1.586173;-0.6062176;1.15;-0.5051399;1.216006;
637946239199262680;618.7216;17;1;2.5;0.3;1.4;1799;1.38966092273485;-0.6893655;1.621553;-0.5863011;1.621135;0.6893654;1.621554;0.6408702;1.586173;
637946239215256263;620.321;17;1;2.5;0.3;1.4;1599;1.56347717323327;0.6062179;1.15;0.567993;1.241528;-0.6893655;1.621553;-0.5863011;1.621135;
637946239229239401;621.7203;17;1;2.5;0.3;1.4;1399;1.78699070764832;-0.4499517;2.036231;-0.3681207;1.978812;0.6062179;1.15;0.567993;1.241528;
637946239244232755;623.2194;17;1;2.5;0.3;1.4;1499;1.66777851901268;0.2394144;0.8422153;0.1939575;0.91541;-0.4499517;2.036231;-0.3681207;1.978812;
637946239910499753;689.8443;17;2;3;0.2;1.4;999;3.003003003003;-0.2394138;0.8422151;-0.1806749;0.9227871;0;2.2;0.005722719;2.130852;
637946239921492218;690.9438;17;2;3;0.2;1.4;1099;2.72975432211101;0.4499513;2.036231;0.4233369;1.942446;-0.2394138;0.8422151;-0.1806749;0.9227871;
637946239934485128;692.2431;17;2;3;0.2;1.4;1299;2.3094688221709;-0.6062176;1.15;-0.5429195;1.163836;0.4499513;2.036231;0.4233369;1.942446;
637946239944477367;693.2426;17;2;3;0.2;1.4;999;3.003003003003;0.6893654;1.621554;0.6623759;1.588575;-0.6062176;1.15;-0.5429195;1.163836;
637946239954479608;694.2422;17;2;3;0.2;1.4;1000;3;-0.6893655;1.621553;-0.6701389;1.613427;0.6893654;1.621554;0.6623759;1.588575;
637946239966452293;695.4417;17;2;3;0.2;1.4;1199;2.50208507089241;0.6062179;1.15;0.6028348;1.173168;-0.6893655;1.621553;-0.6701389;1.613427;
637946239975454308;696.3412;17;2;3;0.2;1.4;900;3.33333333333333;-0.4499517;2.036231;-0.4385721;2.004233;0.6062179;1.15;0.6028348;1.173168;
637946239996439010;698.4401;17;2;3;0.2;1.4;2099;1.4292520247737;0.2394144;0.8422153;0.2283198;0.8607633;-0.4499517;2.036231;-0.4385721;2.004233;
637946240017543735;700.5503;17;2;1.5;1.1;2;1199;1.25104253544621;-0.3420197;0.5603072;-0.04642354;1.00933;0;2.5;0.1414167;2.18548;
637946240028546201;701.6499;17;2;1.5;1.1;2;1100;1.36363636363636;0.6427875;2.266045;0.3468841;1.939306;-0.3420197;0.5603072;-0.04642354;1.00933;
637946240037538216;702.5497;17;2;1.5;1.1;2;900;1.66666666666667;-0.8660251;0.9999995;-0.4914088;1.342173;0.6427875;2.266045;0.3468841;1.939306;
637946240043529557;703.1489;17;2;1.5;1.1;2;599;2.50417362270451;0.9848077;1.673648;0.4653133;1.593907;-0.8660251;0.9999995;-0.4914088;1.342173;
637946240061523584;704.9481;17;2;1.5;1.1;2;1799;0.833796553640912;-0.9848078;1.673648;-0.4824198;1.646093;0.9848077;1.673648;0.4653133;1.593907;
637946240072526056;706.048;17;2;1.5;1.1;2;1100;1.36363636363636;0.8660256;1;0.6119264;1.379559;-0.9848078;1.673648;-0.4824198;1.646093;
637946240083508511;707.1472;17;2;1.5;1.1;2;1099;1.36487716105551;-0.6427882;2.266044;-0.2680003;2.01308;0.8660256;1;0.6119264;1.379559;
637946240093510753;708.1469;17;2;1.5;1.1;2;1000;1.5;0.3420205;0.5603075;0.03082374;0.9802788;-0.6427882;2.266044;-0.2680003;2.01308;
637946240128488585;711.6448;17;2;3.5;0.2;2;1599;2.18886804252658;-0.3420197;0.5603072;-0.3012583;0.5897623;0;2.5;-0.01719948;2.421138;
637946240140481275;712.8444;17;2;3.5;0.2;2;1200;2.91666666666667;0.6427875;2.266045;0.580586;2.229912;-0.3420197;0.5603072;-0.3012583;0.5897623;
637946240154474409;714.2439;17;2;3.5;0.2;2;1399;2.50178699070765;-0.8660251;0.9999995;-0.9340248;1.008257;0.6427875;2.266045;0.580586;2.229912;
637946240170583074;715.8544;17;2;3.5;0.2;2;1610;2.17391304347826;0.9848077;1.673648;0.9373187;1.671499;-0.8660251;0.9999995;-0.9340248;1.008257;
637946240193575025;718.1531;17;2;3.5;0.2;2;2299;1.52240104393214;-0.9848078;1.673648;-0.9407831;1.648724;0.9848077;1.673648;0.9373187;1.671499;
637946240208568382;719.6525;17;2;3.5;0.2;2;1499;2.33488992661775;0.8660256;1;0.8756862;1.021615;-0.9848078;1.673648;-0.9407831;1.648724;
637946240250543772;723.8506;17;2;3.5;0.2;2;4198;0.833730347784659;-0.6427882;2.266044;-0.6001401;2.251451;0.8660256;1;0.8756862;1.021615;
637946240283531161;727.149;17;2;3.5;0.2;2;3298;1.06124924196483;0.3420205;0.5603075;0.2718867;0.613389;-0.6427882;2.266044;-0.6001401;2.251451;
637946240322629919;731.0584;17;2;4.5;0.1;2.2;2577;1.74621653084983;-0.3762217;0.4663379;-0.3819976;0.4978459;0;2.6;0.04916111;2.597802;
637946240340613948;732.8575;17;2;4.5;0.1;2.2;1799;2.50138966092273;0.7070663;2.342649;0.6842204;2.31641;-0.3762217;0.4663379;-0.3819976;0.4978459;
637946240375601785;736.3558;17;2;4.5;0.1;2.2;3498;1.28644939965695;-0.9526277;0.9499994;-0.9250007;0.9615167;0.7070663;2.342649;0.6842204;2.31641;
637946240399587161;738.7546;17;2;4.5;0.1;2.2;2399;1.87578157565652;1.083289;1.691013;1.062984;1.673989;-0.9526277;0.9499994;-0.9250007;0.9615167;
637946240425572988;741.3535;17;2;4.5;0.1;2.2;2599;1.73143516737207;-1.083289;1.691012;-1.064929;1.669175;1.083289;1.691013;1.062984;1.673989;
637946240462551263;745.0515;17;2;4.5;0.1;2.2;3698;1.21687398593835;0.9526281;0.9500003;0.9390186;0.9665999;-1.083289;1.691012;-1.064929;1.669175;
637946240485656440;747.3619;17;2;4.5;0.1;2.2;2310;1.94805194805195;-0.7070671;2.342648;-0.6736153;2.328426;0.9526281;0.9500003;0.9390186;0.9665999;
637946240511649891;749.9608;17;2;4.5;0.1;2.2;2599;1.73143516737207;0.3762226;0.4663382;0.3709566;0.5052047;-0.7070671;2.342648;-0.6736153;2.328426;
637946240530629205;751.8596;17;2;2.5;0.3;1.4;999;2.5025025025025;-0.2394138;0.8422151;-0.1096822;0.8044659;0;2.2;0.04323126;2.199193;
637946240540631444;752.859;17;2;2.5;0.3;1.4;1000;2.5;0.4499513;2.036231;0.4238636;2.018832;-0.2394138;0.8422151;-0.1096822;0.8044659;
637946240548633237;753.6588;17;2;2.5;0.3;1.4;800;3.125;-0.6062176;1.15;-0.616731;1.237803;0.4499513;2.036231;0.4238636;2.018832;
637946240565619351;755.358;17;2;2.5;0.3;1.4;1699;1.47145379635079;0.6893654;1.621554;0.585376;1.623803;-0.6062176;1.15;-0.616731;1.237803;
637946240576615692;756.4576;17;2;2.5;0.3;1.4;1100;2.27272727272727;-0.6893655;1.621553;-0.6096387;1.671307;0.6893654;1.621554;0.585376;1.623803;
637946240592609273;758.0571;17;2;2.5;0.3;1.4;1599;1.56347717323327;0.6062179;1.15;0.5731503;1.241434;-0.6893655;1.621553;-0.6096387;1.671307;
637946240618595098;760.6555;17;2;2.5;0.3;1.4;2598;0.962278675904542;-0.4499517;2.036231;-0.3709747;1.979304;0.6062179;1.15;0.5731503;1.241434;
637946240628697358;761.6663;17;2;2.5;0.3;1.4;1011;2.47279920870425;0.2394144;0.8422153;0.258229;0.7588539;-0.4499517;2.036231;-0.3709747;1.979304;
637946240664685422;765.2648;17;2;2;0.6;1.8;2599;0.769526741054252;-0.3078177;0.6542765;-0.1882344;0.7921556;0;2.4;0.08217008;2.289154;
637946240677678331;766.5639;17;2;2;0.6;1.8;1299;1.53964588144727;0.5785087;2.18944;0.3975774;2.096803;-0.3078177;0.6542765;-0.1882344;0.7921556;
637946240698673032;768.6631;17;2;2;0.6;1.8;2099;0.952834683182468;-0.7794226;1.05;-0.5728101;1.185808;0.5785087;2.18944;0.3975774;2.096803;
637946240711665944;769.9626;17;2;2;0.6;1.8;1299;1.53964588144727;0.8863269;1.656283;0.6946044;1.663002;-0.7794226;1.05;-0.5728101;1.185808;
637946240719657732;770.7622;17;2;2;0.6;1.8;800;2.5;-0.8863271;1.656283;-0.648957;1.695964;0.8863269;1.656283;0.6946044;1.663002;
637946240733660871;772.1618;17;2;2;0.6;1.8;1400;1.42857142857143;0.779423;1.05;0.626795;1.214798;-0.8863271;1.656283;-0.648957;1.695964;
637946240743653109;773.161;17;2;2;0.6;1.8;999;2.002002002002;-0.5785094;2.18944;-0.5029072;2.17006;0.779423;1.05;0.626795;1.214798;
637946240765638032;775.3599;17;2;2;0.6;1.8;2199;0.909504320145521;0.3078185;0.6542768;0.3325545;0.8665643;-0.5785094;2.18944;-0.5029072;2.17006;
637946240806727245;779.4689;17;2;4;0.1;1.4;2298;1.74064403829417;-0.2394138;0.8422151;-0.2210816;0.8640176;0;2.2;-0.007297995;2.169862;
637946240828723375;781.668;17;2;4;0.1;1.4;2199;1.81900864029104;0.4499513;2.036231;0.433789;2.005706;-0.2394138;0.8422151;-0.2210816;0.8640176;
637946240856823151;784.4778;17;2;4;0.1;1.4;2810;1.42348754448399;-0.6062176;1.15;-0.5915715;1.155888;0.4499513;2.036231;0.433789;2.005706;
637946240932782701;792.0744;17;2;4;0.1;1.4;7596;0.526592943654555;0.6893654;1.621554;0.6806409;1.599084;-0.6062176;1.15;-0.5915715;1.155888;
637946240952887203;794.0847;17;2;4;0.1;1.4;2010;1.99004975124378;-0.6893655;1.621553;-0.6584578;1.637866;0.6893654;1.621554;0.6806409;1.599084;
637946240975872353;796.3837;17;2;4;0.1;1.4;2299;1.73988690735102;0.6062179;1.15;0.5979569;1.130352;-0.6893655;1.621553;-0.6584578;1.637866;
637946240990865715;797.8829;17;2;4;0.1;1.4;1499;2.66844563042028;-0.4499517;2.036231;-0.4453429;2.02647;0.6062179;1.15;0.5979569;1.130352;
637946241021852647;800.9811;17;2;4;0.1;1.4;3098;1.2911555842479;0.2394144;0.8422153;0.2296927;0.8717718;-0.4499517;2.036231;-0.4453429;2.02647;
637946242104128447;909.2087;17;3;3.5;0.2;2;1899;1.84307530279094;-0.3420197;0.5603072;-0.3071004;0.6251509;0;2.5;0.01982743;2.488143;
637946242116121131;910.4083;17;3;3.5;0.2;2;1200;2.91666666666667;0.6427875;2.266045;0.5969202;2.214999;-0.3420197;0.5603072;-0.3071004;0.6251509;
637946242129114046;911.7075;17;3;3.5;0.2;2;1299;2.69438029253272;-0.8660251;0.9999995;-0.8754439;1.045051;0.6427875;2.266045;0.5969202;2.214999;
637946242142116953;913.0069;17;3;3.5;0.2;2;1299;2.69438029253272;0.9848077;1.673648;0.9980174;1.638207;-0.8660251;0.9999995;-0.8754439;1.045051;
637946242153099422;914.1063;17;3;3.5;0.2;2;1099;3.18471337579618;-0.9848078;1.673648;-0.914248;1.648318;0.9848077;1.673648;0.9980174;1.638207;
637946242180205494;916.8162;17;3;3.5;0.2;2;2710;1.29151291512915;0.8660256;1;0.8166914;1.029041;-0.9848078;1.673648;-0.914248;1.648318;
637946242193198407;918.1155;17;3;3.5;0.2;2;1299;2.69438029253272;-0.6427882;2.266044;-0.5604147;2.270976;0.8660256;1;0.8166914;1.029041;
637946242213186002;920.1147;17;3;3.5;0.2;2;1999;1.75087543771886;0.3420205;0.5603075;0.3023126;0.6328657;-0.6427882;2.266044;-0.5604147;2.270976;
637946242260166235;924.8124;17;3;4;0.1;1.4;2599;1.5390534821085;-0.2394138;0.8422151;-0.2266989;0.8673759;0;2.2;0.01375761;2.160268;
637946242284155921;927.2116;17;3;4;0.1;1.4;2399;1.66736140058358;0.4499513;2.036231;0.4495;2.003822;-0.2394138;0.8422151;-0.2266989;0.8673759;
637946242302259981;929.022;17;3;4;0.1;1.4;1810;2.20994475138122;-0.6062176;1.15;-0.5933029;1.168183;0.4499513;2.036231;0.4495;2.003822;
637946242326245356;931.4208;17;3;4;0.1;1.4;2399;1.66736140058358;0.6893654;1.621554;0.6804305;1.613529;-0.6062176;1.15;-0.5933029;1.168183;
637946242348240285;933.6195;17;3;4;0.1;1.4;2199;1.81900864029104;-0.6893655;1.621553;-0.6650935;1.613969;0.6893654;1.621554;0.6804305;1.613529;
637946242365224084;935.3188;17;3;4;0.1;1.4;1699;2.35432607416127;0.6062179;1.15;0.5874881;1.154912;-0.6893655;1.621553;-0.6650935;1.613969;
637946242376226551;936.4182;17;3;4;0.1;1.4;1099;3.63967242948135;-0.4499517;2.036231;-0.4763381;1.999792;0.6062179;1.15;0.5874881;1.154912;
637946242403212596;939.1169;17;3;4;0.1;1.4;2699;1.48203038162282;0.2394144;0.8422153;0.2327098;0.8680195;-0.4499517;2.036231;-0.4763381;1.999792;
637946242433199311;942.1155;17;3;3;0.2;1.4;1199;2.50208507089241;-0.2394138;0.8422151;-0.2336412;0.824007;0;2.2;0.003493076;2.119894;
637946242461295615;944.9254;17;3;3;0.2;1.4;2810;1.06761565836299;0.4499513;2.036231;0.4687948;2.004636;-0.2394138;0.8422151;-0.2336412;0.824007;
637946242478289412;946.6246;17;3;3;0.2;1.4;1699;1.76574455562095;-0.6062176;1.15;-0.5568306;1.188307;0.4499513;2.036231;0.4687948;2.004636;
637946242491282328;947.924;17;3;3;0.2;1.4;1299;2.3094688221709;0.6893654;1.621554;0.676057;1.615095;-0.6062176;1.15;-0.5568306;1.188307;
637946242502274788;949.0237;17;3;3;0.2;1.4;1100;2.72727272727273;-0.6893655;1.621553;-0.6639875;1.621545;0.6893654;1.621554;0.676057;1.615095;
637946242513267253;950.123;17;3;3;0.2;1.4;1099;2.72975432211101;0.6062179;1.15;0.5736352;1.197115;-0.6893655;1.621553;-0.6639875;1.621545;
637946242524269707;951.2225;17;3;3;0.2;1.4;1099;2.72975432211101;-0.4499517;2.036231;-0.479773;1.995217;0.6062179;1.15;0.5736352;1.197115;
637946242544254193;953.2216;17;3;3;0.2;1.4;1999;1.50075037518759;0.2394144;0.8422153;0.2285809;0.9224015;-0.4499517;2.036231;-0.479773;1.995217;
637946242610333284;959.8294;17;3;2.5;0.3;1.4;4909;0.509268690160929;-0.2394138;0.8422151;-0.2077236;0.9274676;0;2.2;0.02715807;2.118983;
637946242637321603;962.5284;17;3;2.5;0.3;1.4;2699;0.926268988514265;0.4499513;2.036231;0.4370202;2.069388;-0.2394138;0.8422151;-0.2077236;0.9274676;
637946242658316306;964.6273;17;3;2.5;0.3;1.4;2099;1.19104335397808;-0.6062176;1.15;-0.5242777;1.208754;0.4499513;2.036231;0.4370202;2.069388;
637946242676310329;966.4263;17;3;2.5;0.3;1.4;1799;1.38966092273485;0.6893654;1.621554;0.5901576;1.592153;-0.6062176;1.15;-0.5242777;1.208754;
637946242686302575;967.4259;17;3;2.5;0.3;1.4;1000;2.5;-0.6893655;1.621553;-0.6234608;1.605798;0.6893654;1.621554;0.5901576;1.592153;
637946242707287274;969.5251;17;3;2.5;0.3;1.4;2099;1.19104335397808;0.6062179;1.15;0.5692719;1.241928;-0.6893655;1.621553;-0.6234608;1.605798;
637946242720290189;970.8244;17;3;2.5;0.3;1.4;1299;1.92455735180908;-0.4499517;2.036231;-0.4657971;1.983254;0.6062179;1.15;0.5692719;1.241928;
637946242752377375;974.034;17;3;2.5;0.3;1.4;3210;0.778816199376947;0.2394144;0.8422153;0.2045544;0.8719305;-0.4499517;2.036231;-0.4657971;1.983254;
637946242781363870;976.9326;17;3;1.5;1.1;2;999;1.5015015015015;-0.3420197;0.5603072;-0.1411031;0.968447;0;2.5;0.08615107;2.220718;
637946242792366336;978.0323;17;3;1.5;1.1;2;1100;1.36363636363636;0.6427875;2.266045;0.3657961;2.054544;-0.3420197;0.5603072;-0.1411031;0.968447;
637946242802358572;979.0314;17;3;1.5;1.1;2;999;1.5015015015015;-0.8660251;0.9999995;-0.5966955;1.366414;0.6427875;2.266045;0.3657961;2.054544;
637946242812350811;980.0311;17;3;1.5;1.1;2;1000;1.5;0.9848077;1.673648;0.6304801;1.708794;-0.8660251;0.9999995;-0.5966955;1.366414;
637946242829344619;981.7305;17;3;1.5;1.1;2;1699;0.882872277810477;-0.9848078;1.673648;-0.5103695;1.695022;0.9848077;1.673648;0.6304801;1.708794;
637946242838346634;982.6304;17;3;1.5;1.1;2;900;1.66666666666667;0.8660256;1;0.576566;1.340192;-0.9848078;1.673648;-0.5103695;1.695022;
637946242847338651;983.5295;17;3;1.5;1.1;2;899;1.66852057842047;-0.6427882;2.266044;-0.3581879;2.109931;0.8660256;1;0.576566;1.340192;
637946242858331110;984.6288;17;3;1.5;1.1;2;1099;1.36487716105551;0.3420205;0.5603075;0.1176446;0.9958181;-0.6427882;2.266044;-0.3581879;2.109931;
637946242890318275;987.8277;17;3;2;0.6;1.8;1799;1.11172873818788;-0.3078177;0.6542765;-0.1551155;0.8882012;0;2.4;0.02556714;2.179567;
637946242901420762;988.9384;17;3;2;0.6;1.8;1111;1.8001800180018;0.5785087;2.18944;0.367656;2.07914;-0.3078177;0.6542765;-0.1551155;0.8882012;
637946242940405277;992.8366;17;3;2;0.6;1.8;3898;0.513083632632119;-0.7794226;1.05;-0.6352342;1.216643;0.5785087;2.18944;0.367656;2.07914;
637946242963388227;995.1353;17;3;2;0.6;1.8;2299;0.869943453675511;0.8863269;1.656283;0.6794932;1.633251;-0.7794226;1.05;-0.6352342;1.216643;
637946242973390463;996.1348;17;3;2;0.6;1.8;999;2.002002002002;-0.8863271;1.656283;-0.7457113;1.675622;0.8863269;1.656283;0.6794932;1.633251;
637946242989384043;997.734;17;3;2;0.6;1.8;1599;1.25078173858662;0.779423;1.05;0.6099673;1.025896;-0.8863271;1.656283;-0.7457113;1.675622;
637946243002376953;999.0335;17;3;2;0.6;1.8;1299;1.53964588144727;-0.5785094;2.18944;-0.4113497;2.069714;0.779423;1.05;0.6099673;1.025896;
637946243018370536;1000.633;17;3;2;0.6;1.8;1599;1.25078173858662;0.3078185;0.6542768;0.2112906;0.8938148;-0.5785094;2.18944;-0.4113497;2.069714;
637946243059759810;1004.78;17;3;4.5;0.1;2.2;1449;3.1055900621118;-0.3762217;0.4663379;-0.3713427;0.5153856;0;2.6;0.0022512;2.60643;
637946243075453324;1006.341;17;3;4.5;0.1;2.2;1561;2.88276745675849;0.7070663;2.342649;0.6814635;2.317616;-0.3762217;0.4663379;-0.3713427;0.5153856;
637946243086445783;1007.44;17;3;4.5;0.1;2.2;1099;4.09463148316652;-0.9526277;0.9499994;-0.9754368;0.969207;0.7070663;2.342649;0.6814635;2.317616;
637946243101439142;1008.94;17;3;4.5;0.1;2.2;1499;3.00200133422282;1.083289;1.691013;1.06209;1.674799;-0.9526277;0.9499994;-0.9754368;0.969207;
637946243113431830;1010.139;17;3;4.5;0.1;2.2;1200;3.75;-1.083289;1.691012;-1.04588;1.683556;1.083289;1.691013;1.06209;1.674799;
637946243134426532;1012.239;17;3;4.5;0.1;2.2;2099;2.14387803716055;0.9526281;0.9500003;0.9605039;0.9742849;-1.083289;1.691012;-1.04588;1.683556;
637946243158411905;1014.637;17;3;4.5;0.1;2.2;2399;1.87578157565652;-0.7070671;2.342648;-0.685122;2.32035;0.9526281;0.9500003;0.9605039;0.9742849;
637946243181407057;1016.936;17;3;4.5;0.1;2.2;2299;1.9573727707699;0.3762226;0.4663382;0.3710722;0.5015789;-0.7070671;2.342648;-0.685122;2.32035;
637946244409835353;1139.779;17;4;2;0.6;1.8;800;2.5;-0.3078177;0.6542765;-0.2479069;0.8993671;0;2.4;0.05972252;2.163828;
637946244423828488;1141.178;17;4;2;0.6;1.8;1399;1.42959256611866;0.5785087;2.18944;0.4739729;2.055505;-0.3078177;0.6542765;-0.2479069;0.8993671;
637946244431820278;1141.978;17;4;2;0.6;1.8;799;2.50312891113892;-0.7794226;1.05;-0.7721605;1.325542;0.5785087;2.18944;0.4739729;2.055505;
637946244439812068;1142.778;17;4;2;0.6;1.8;800;2.5;0.8863269;1.656283;0.6610624;1.698052;-0.7794226;1.05;-0.7721605;1.325542;
637946244454915452;1144.288;17;4;2;0.6;1.8;1510;1.32450331125828;-0.8863271;1.656283;-0.6163816;1.679565;0.8863269;1.656283;0.6610624;1.698052;
637946244465917920;1145.388;17;4;2;0.6;1.8;1099;1.81983621474067;0.779423;1.05;0.6292156;1.242761;-0.8863271;1.656283;-0.6163816;1.679565;
637946244479911051;1146.787;17;4;2;0.6;1.8;1399;1.42959256611866;-0.5785094;2.18944;-0.411011;2.020645;0.779423;1.05;0.6292156;1.242761;
637946244488903063;1147.687;17;4;2;0.6;1.8;900;2.22222222222222;0.3078185;0.6542768;0.1784038;0.871297;-0.5785094;2.18944;-0.411011;2.020645;
637946244529882244;1151.785;17;4;3;0.2;1.4;2899;1.03483959986202;-0.2394138;0.8422151;-0.2454392;0.9152168;0;2.2;-0.0129276;2.152964;
637946244539884487;1152.784;17;4;3;0.2;1.4;1000;3;0.4499513;2.036231;0.3961546;1.97915;-0.2394138;0.8422151;-0.2454392;0.9152168;
637946244549876724;1153.784;17;4;3;0.2;1.4;999;3.003003003003;-0.6062176;1.15;-0.5468256;1.207303;0.4499513;2.036231;0.3961546;1.97915;
637946244557878510;1154.584;17;4;3;0.2;1.4;800;3.75;0.6893654;1.621554;0.6567304;1.589685;-0.6062176;1.15;-0.5468256;1.207303;
637946244565870312;1155.383;17;4;3;0.2;1.4;799;3.75469336670839;-0.6893655;1.621553;-0.5958691;1.629115;0.6893654;1.621554;0.6567304;1.589685;
637946244575862547;1156.382;17;4;3;0.2;1.4;1000;3;0.6062179;1.15;0.5801336;1.138916;-0.6893655;1.621553;-0.5958691;1.629115;
637946244584864562;1157.282;17;4;3;0.2;1.4;900;3.33333333333333;-0.4499517;2.036231;-0.3840995;2.032766;0.6062179;1.15;0.5801336;1.138916;
637946244595857028;1158.381;17;4;3;0.2;1.4;1099;2.72975432211101;0.2394144;0.8422153;0.2035271;0.8898944;-0.4499517;2.036231;-0.3840995;2.032766;
637946244619952424;1160.792;17;4;3.5;0.2;2;1310;2.67175572519084;-0.3420197;0.5603072;-0.3355203;0.6017556;0;2.5;0.01044794;2.46027;
637946244636956231;1162.492;17;4;3.5;0.2;2;1700;2.05882352941176;0.6427875;2.266045;0.6025345;2.269738;-0.3420197;0.5603072;-0.3355203;0.6017556;
637946244647938691;1163.59;17;4;3.5;0.2;2;1099;3.18471337579618;-0.8660251;0.9999995;-0.8888158;0.9414321;0.6427875;2.266045;0.6025345;2.269738;
637946244657940931;1164.59;17;4;3.5;0.2;2;1000;3.5;0.9848077;1.673648;0.9311774;1.688259;-0.8660251;0.9999995;-0.8888158;0.9414321;
637946244668938949;1165.689;17;4;3.5;0.2;2;1099;3.18471337579618;-0.9848078;1.673648;-0.9679056;1.64899;0.9848077;1.673648;0.9311774;1.688259;
637946244685920114;1167.388;17;4;3.5;0.2;2;1699;2.06003531489111;0.8660256;1;0.7766088;1.044031;-0.9848078;1.673648;-0.9679056;1.64899;
637946244696912566;1168.488;17;4;3.5;0.2;2;1100;3.18181818181818;-0.6427882;2.266044;-0.6071227;2.264562;0.8660256;1;0.7766088;1.044031;
637946244708915265;1169.688;17;4;3.5;0.2;2;1200;2.91666666666667;0.3420205;0.5603075;0.2915036;0.5523047;-0.6427882;2.266044;-0.6071227;2.264562;
637946244725906449;1171.386;17;4;1.5;1.1;2;799;1.87734668335419;-0.3420197;0.5603072;-0.04192936;0.9090203;0;2.5;0.1260918;2.071718;
637946244732898014;1172.086;17;4;1.5;1.1;2;700;2.14285714285714;0.6427875;2.266045;0.3773945;1.882173;-0.3420197;0.5603072;-0.04192936;0.9090203;
637946244741900033;1172.986;17;4;1.5;1.1;2;900;1.66666666666667;-0.8660251;0.9999995;-0.544611;1.334553;0.6427875;2.266045;0.3773945;1.882173;
637946244755002969;1174.296;17;4;1.5;1.1;2;1310;1.14503816793893;0.9848077;1.673648;0.4542607;1.564733;-0.8660251;0.9999995;-0.544611;1.334553;
637946244771996777;1175.995;17;4;1.5;1.1;2;1699;0.882872277810477;-0.9848078;1.673648;-0.5036546;1.648887;0.9848077;1.673648;0.4542607;1.564733;
637946244788990579;1177.695;17;4;1.5;1.1;2;1699;0.882872277810477;0.8660256;1;0.6654376;1.409834;-0.9848078;1.673648;-0.5036546;1.648887;
637946244800983269;1178.894;17;4;1.5;1.1;2;1199;1.25104253544621;-0.6427882;2.266044;-0.2405776;2.172026;0.8660256;1;0.6654376;1.409834;
637946244818977298;1180.693;17;4;1.5;1.1;2;1799;0.833796553640912;0.3420205;0.5603075;0.2135427;1.063001;-0.6427882;2.266044;-0.2405776;2.172026;
637946244850214295;1183.825;17;4;4.5;0.1;2.2;1332;3.37837837837838;-0.3762217;0.4663379;-0.3414035;0.5022409;0;2.6;0.008721229;2.574156;
637946244867948272;1185.591;17;4;4.5;0.1;2.2;1767;2.54668930390492;0.7070663;2.342649;0.7109705;2.295347;-0.3762217;0.4663379;-0.3414035;0.5022409;
637946244892943869;1188.09;17;4;4.5;0.1;2.2;2499;1.80072028811525;-0.9526277;0.9499994;-0.9125534;0.9746521;0.7070663;2.342649;0.7109705;2.295347;
637946244903936328;1189.189;17;4;4.5;0.1;2.2;1099;4.09463148316652;1.083289;1.691013;1.056904;1.655515;-0.9526277;0.9499994;-0.9125534;0.9746521;
637946244917339327;1190.538;17;4;4.5;0.1;2.2;1349;3.3358042994811;-1.083289;1.691012;-1.122001;1.692795;1.083289;1.691013;1.056904;1.655515;
637946244944025304;1193.199;17;4;4.5;0.1;2.2;2661;1.69109357384442;0.9526281;0.9500003;0.9267668;0.9741602;-1.083289;1.691012;-1.122001;1.692795;
637946244973011805;1196.097;17;4;4.5;0.1;2.2;2899;1.55225939979303;-0.7070671;2.342648;-0.7035277;2.319432;0.9526281;0.9500003;0.9267668;0.9741602;
637946244990005610;1197.797;17;4;4.5;0.1;2.2;1699;2.64861683343143;0.3762226;0.4663382;0.3716944;0.5135046;-0.7070671;2.342648;-0.7035277;2.319432;
637946245009994933;1199.796;17;4;2.5;0.3;1.4;1000;2.5;-0.2394138;0.8422151;-0.1578634;0.8261193;0;2.2;0.0225964;2.13235;
637946245021987613;1200.995;17;4;2.5;0.3;1.4;1199;2.08507089241034;0.4499513;2.036231;0.3990646;1.946596;-0.2394138;0.8422151;-0.1578634;0.8261193;
637946245029989406;1201.795;17;4;2.5;0.3;1.4;800;3.125;-0.6062176;1.15;-0.56657;1.225951;0.4499513;2.036231;0.3990646;1.946596;
637946245048973659;1203.694;17;4;2.5;0.3;1.4;1899;1.31648235913639;0.6893654;1.621554;0.5514244;1.605541;-0.6062176;1.15;-0.56657;1.225951;
637946245061081835;1204.904;17;4;2.5;0.3;1.4;1210;2.06611570247934;-0.6893655;1.621553;-0.6418304;1.677829;0.6893654;1.621554;0.5514244;1.605541;
637946245070073845;1205.804;17;4;2.5;0.3;1.4;900;2.77777777777778;0.6062179;1.15;0.7300352;1.207082;-0.6893655;1.621553;-0.6418304;1.677829;
637946245079085867;1206.704;17;4;2.5;0.3;1.4;901;2.77469478357381;-0.4499517;2.036231;-0.349176;2.017016;0.6062179;1.15;0.7300352;1.207082;
637946245089078103;1207.704;17;4;2.5;0.3;1.4;999;2.5025025025025;0.2394144;0.8422153;0.1812107;0.8753654;-0.4499517;2.036231;-0.349176;2.017016;
637946245132047727;1212.001;17;4;4;0.1;1.4;2099;1.90566936636494;-0.2394138;0.8422151;-0.2517383;0.8455138;0;2.2;-0.004170024;2.17352;
637946245144040416;1213.201;17;4;4;0.1;1.4;1200;3.33333333333333;0.4499513;2.036231;0.4568729;2.048501;-0.2394138;0.8422151;-0.2517383;0.8455138;
637946245156033101;1214.4;17;4;4;0.1;1.4;1199;3.33611342785655;-0.6062176;1.15;-0.6046236;1.17114;0.4499513;2.036231;0.4568729;2.048501;
637946245175027355;1216.299;17;4;4;0.1;1.4;1899;2.10637177461822;0.6893654;1.621554;0.6930881;1.602492;-0.6062176;1.15;-0.6046236;1.17114;
637946245213015867;1220.097;17;4;4;0.1;1.4;3799;1.05290866017373;-0.6893655;1.621553;-0.6840765;1.612227;0.6893654;1.621554;0.6930881;1.602492;
637946245228119248;1221.608;17;4;4;0.1;1.4;1510;2.64900662251656;0.6062179;1.15;0.5614507;1.136145;-0.6893655;1.621553;-0.6840765;1.612227;
637946245242112384;1223.007;17;4;4;0.1;1.4;1399;2.85918513223731;-0.4499517;2.036231;-0.4372611;2.003903;0.6062179;1.15;0.5614507;1.136145;
637946245250324222;1223.836;17;4;4;0.1;1.4;829;4.82509047044632;0.2394144;0.8422153;0.261325;0.8871592;-0.4499517;2.036231;-0.4372611;2.003903;
637946245965231499;1295.318;17;5;3.5;0.2;2;1370;2.55474452554745;-0.3420197;0.5603072;-0.3222963;0.6254593;0;2.5;0.006387752;2.400237;
637946245982335330;1297.029;17;5;3.5;0.2;2;1711;2.04558737580362;0.6427875;2.266045;0.6132858;2.218387;-0.3420197;0.5603072;-0.3222963;0.6254593;
637946245992337568;1298.028;17;5;3.5;0.2;2;999;3.5035035035035;-0.8660251;0.9999995;-0.8528438;1.032158;0.6427875;2.266045;0.6132858;2.218387;
637946246003330036;1299.127;17;5;3.5;0.2;2;1099;3.18471337579618;0.9848077;1.673648;1.032516;1.664545;-0.8660251;0.9999995;-0.8528438;1.032158;
637946246014312495;1300.227;17;5;3.5;0.2;2;1100;3.18181818181818;-0.9848078;1.673648;-0.9217793;1.656155;0.9848077;1.673648;1.032516;1.664545;
637946246024304734;1301.226;17;5;3.5;0.2;2;999;3.5035035035035;0.8660256;1;0.8659872;1.032151;-0.9848078;1.673648;-0.9217793;1.656155;
637946246033296745;1302.125;17;5;3.5;0.2;2;899;3.89321468298109;-0.6427882;2.266044;-0.6078822;2.172423;0.8660256;1;0.8659872;1.032151;
637946246044289206;1303.225;17;5;3.5;0.2;2;1100;3.18181818181818;0.3420205;0.5603075;0.2971211;0.6237168;-0.6427882;2.266044;-0.6078822;2.172423;
637946246067284359;1305.524;17;5;2.5;0.3;1.4;1100;2.27272727272727;-0.2394138;0.8422151;-0.1800856;0.8183696;0;2.2;0.0535001;2.070938;
637946246089269284;1307.723;17;5;2.5;0.3;1.4;2199;1.1368804001819;0.4499513;2.036231;0.4163251;1.941639;-0.2394138;0.8422151;-0.1800856;0.8183696;
637946246099381550;1308.734;17;5;2.5;0.3;1.4;1011;2.47279920870425;-0.6062176;1.15;-0.558272;1.226181;0.4499513;2.036231;0.4163251;1.941639;
637946246108373563;1309.634;17;5;2.5;0.3;1.4;900;2.77777777777778;0.6893654;1.621554;0.6607382;1.612445;-0.6062176;1.15;-0.558272;1.226181;
637946246118365802;1310.633;17;5;2.5;0.3;1.4;999;2.5025025025025;-0.6893655;1.621553;-0.7553168;1.616951;0.6893654;1.621554;0.6607382;1.612445;
637946246127367819;1311.532;17;5;2.5;0.3;1.4;900;2.77777777777778;0.6062179;1.15;0.6310741;1.218696;-0.6893655;1.621553;-0.7553168;1.616951;
637946246136359836;1312.432;17;5;2.5;0.3;1.4;900;2.77777777777778;-0.4499517;2.036231;-0.4492534;1.977314;0.6062179;1.15;0.6310741;1.218696;
637946246153353641;1314.131;17;5;2.5;0.3;1.4;1699;1.47145379635079;0.2394144;0.8422153;0.2188597;0.9084356;-0.4499517;2.036231;-0.4492534;1.977314;
637946246173348122;1316.13;17;5;3;0.2;1.4;1000;3;-0.2394138;0.8422151;-0.2094168;0.8710454;0;2.2;0.009657533;2.165129;
637946246182340133;1317.03;17;5;3;0.2;1.4;899;3.33704115684093;0.4499513;2.036231;0.4794586;1.968367;-0.2394138;0.8422151;-0.2094168;0.8710454;
637946246196333269;1318.429;17;5;3;0.2;1.4;1399;2.14438884917798;-0.6062176;1.15;-0.5329134;1.200746;0.4499513;2.036231;0.4794586;1.968367;
637946246206325506;1319.429;17;5;3;0.2;1.4;1000;3;0.6893654;1.621554;0.6751527;1.575152;-0.6062176;1.15;-0.5329134;1.200746;
637946246216327748;1320.428;17;5;3;0.2;1.4;1000;3;-0.6893655;1.621553;-0.6372108;1.586141;0.6893654;1.621554;0.6751527;1.575152;
637946246227315851;1321.528;17;5;3;0.2;1.4;1099;2.72975432211101;0.6062179;1.15;0.6338108;1.175211;-0.6893655;1.621553;-0.6372108;1.586141;
637946246240310185;1322.827;17;5;3;0.2;1.4;1299;2.3094688221709;-0.4499517;2.036231;-0.4327236;2.0109;0.6062179;1.15;0.6338108;1.175211;
637946246251412672;1323.938;17;5;3;0.2;1.4;1111;2.7002700270027;0.2394144;0.8422153;0.1818505;0.8860365;-0.4499517;2.036231;-0.4327236;2.0109;
637946246286396886;1327.436;17;5;2;0.6;1.8;1899;1.05318588730911;-0.3078177;0.6542765;-0.1933412;0.9030209;0;2.4;0.07619382;2.136106;
637946246297408253;1328.537;17;5;2;0.6;1.8;1101;1.81653042688465;0.5785087;2.18944;0.486017;1.998562;-0.3078177;0.6542765;-0.1933412;0.9030209;
637946246312381607;1330.035;17;5;2;0.6;1.8;1498;1.33511348464619;-0.7794226;1.05;-0.6372486;1.18013;0.5785087;2.18944;0.486017;1.998562;
637946246320383398;1330.835;17;5;2;0.6;1.8;800;2.5;0.8863269;1.656283;0.6806828;1.559296;-0.7794226;1.05;-0.6372486;1.18013;
637946246330375637;1331.834;17;5;2;0.6;1.8;999;2.002002002002;-0.8863271;1.656283;-0.6743414;1.595361;0.8863269;1.656283;0.6806828;1.559296;
637946246341380172;1332.934;17;5;2;0.6;1.8;1100;1.81818181818182;0.779423;1.05;0.6505229;1.295352;-0.8863271;1.656283;-0.6743414;1.595361;
637946246352372633;1334.033;17;5;2;0.6;1.8;1099;1.81983621474067;-0.5785094;2.18944;-0.3957763;2.081218;0.779423;1.05;0.6505229;1.295352;
637946246363366649;1335.133;17;5;2;0.6;1.8;1100;1.81818181818182;0.3078185;0.6542768;0.1169707;0.8387861;-0.5785094;2.18944;-0.3957763;2.081218;
637946246398464512;1338.642;17;5;4.5;0.1;2.2;1799;2.50138966092273;-0.3762217;0.4663379;-0.3578768;0.4473696;0;2.6;-0.007001193;2.57224;
637946246410457196;1339.841;17;5;4.5;0.1;2.2;1199;3.75312760633862;0.7070663;2.342649;0.6978573;2.374277;-0.3762217;0.4663379;-0.3578768;0.4473696;
637946246425450559;1341.341;17;5;4.5;0.1;2.2;1500;3;-0.9526277;0.9499994;-0.9413742;0.9937344;0.7070663;2.342649;0.6978573;2.374277;
637946246438443470;1342.641;17;5;4.5;0.1;2.2;1300;3.46153846153846;1.083289;1.691013;1.078205;1.68779;-0.9526277;0.9499994;-0.9413742;0.9937344;
637946246456687556;1344.472;17;5;4.5;0.1;2.2;1832;2.45633187772926;-1.083289;1.691012;-1.03594;1.674919;1.083289;1.691013;1.078205;1.68779;
637946246488414661;1347.638;17;5;4.5;0.1;2.2;3166;1.42135186355022;0.9526281;0.9500003;0.9470606;0.9769246;-1.083289;1.691012;-1.03594;1.674919;
637946246504408246;1349.237;17;5;4.5;0.1;2.2;1599;2.81425891181989;-0.7070671;2.342648;-0.6688381;2.33737;0.9526281;0.9500003;0.9470606;0.9769246;
637946246538505884;1352.647;17;5;4.5;0.1;2.2;3410;1.31964809384164;0.3762226;0.4663382;0.3590066;0.4929545;-0.7070671;2.342648;-0.6688381;2.33737;
637946246563491483;1355.145;17;5;1.5;1.1;2;1299;1.15473441108545;-0.3420197;0.5603072;-0.02265238;0.9843385;0;2.5;0.1063302;2.319422;
637946246573483722;1356.145;17;5;1.5;1.1;2;1000;1.5;0.6427875;2.266045;0.3919521;1.904661;-0.3420197;0.5603072;-0.02265238;0.9843385;
637946246582485736;1357.045;17;5;1.5;1.1;2;900;1.66666666666667;-0.8660251;0.9999995;-0.5836182;1.346986;0.6427875;2.266045;0.3919521;1.904661;
637946246592487976;1358.044;17;5;1.5;1.1;2;1000;1.5;0.9848077;1.673648;0.5662741;1.62042;-0.8660251;0.9999995;-0.5836182;1.346986;
637946246601479991;1358.944;17;5;1.5;1.1;2;899;1.66852057842047;-0.9848078;1.673648;-0.5559267;1.708879;0.9848077;1.673648;0.5662741;1.62042;
637946246610472005;1359.843;17;5;1.5;1.1;2;900;1.66666666666667;0.8660256;1;0.5709899;1.319067;-0.9848078;1.673648;-0.5559267;1.708879;
637946246621474469;1360.943;17;5;1.5;1.1;2;1100;1.36363636363636;-0.6427882;2.266044;-0.3525957;1.963327;0.8660256;1;0.5709899;1.319067;
637946246637458050;1362.542;17;5;1.5;1.1;2;1599;0.938086303939963;0.3420205;0.5603075;0.1810905;1.025202;-0.6427882;2.266044;-0.3525957;1.963327;
637946246681549803;1366.951;17;5;4;0.1;1.4;3510;1.13960113960114;-0.2394138;0.8422151;-0.2408904;0.8618947;0;2.2;0.02267739;2.178029;
637946246692545161;1368.05;17;5;4;0.1;1.4;1099;3.63967242948135;0.4499513;2.036231;0.422226;2.026453;-0.2394138;0.8422151;-0.2408904;0.8618947;
637946246712538000;1370.05;17;5;4;0.1;1.4;1999;2.00100050025012;-0.6062176;1.15;-0.5978904;1.143131;0.4499513;2.036231;0.422226;2.026453;
637946246727526262;1371.549;17;5;4;0.1;1.4;1499;2.66844563042028;0.6893654;1.621554;0.6628399;1.588096;-0.6062176;1.15;-0.5978904;1.143131;
637946246769805733;1375.784;17;5;4;0.1;1.4;4235;0.944510035419126;-0.6893655;1.621553;-0.7105265;1.665435;0.6893654;1.621554;0.6628399;1.588096;
637946246799492383;1378.745;17;5;4;0.1;1.4;2961;1.35089496791624;0.6062179;1.15;0.6135453;1.150172;-0.6893655;1.621553;-0.7105265;1.665435;
637946246811605097;1379.956;17;5;4;0.1;1.4;1210;3.30578512396694;-0.4499517;2.036231;-0.4613806;2.041974;0.6062179;1.15;0.6135453;1.150172;
637946246824598007;1381.255;17;5;4;0.1;1.4;1299;3.07929176289453;0.2394144;0.8422153;0.2508056;0.888599;-0.4499517;2.036231;-0.4613806;2.041974;
637946247399777639;1438.773;17;6;4.5;0.1;2.2;1266;3.55450236966825;-0.3762217;0.4663379;-0.3796973;0.5124741;0;2.6;0.04838748;2.593305;
637946247422762796;1441.072;17;6;4.5;0.1;2.2;2299;1.9573727707699;0.7070663;2.342649;0.6970564;2.320721;-0.3762217;0.4663379;-0.3796973;0.5124741;
637946247435748888;1442.371;17;6;4.5;0.1;2.2;1299;3.46420323325635;-0.9526277;0.9499994;-0.9546695;0.9700128;0.7070663;2.342649;0.6970564;2.320721;
637946247450746976;1443.871;17;6;4.5;0.1;2.2;1499;3.00200133422282;1.083289;1.691013;1.089403;1.68744;-0.9526277;0.9499994;-0.9546695;0.9700128;
637946247472741905;1446.07;17;6;4.5;0.1;2.2;2200;2.04545454545455;-1.083289;1.691012;-1.076802;1.684924;1.083289;1.691013;1.089403;1.68744;
637946247502728624;1449.068;17;6;4.5;0.1;2.2;2998;1.50100066711141;0.9526281;0.9500003;0.930496;0.9633243;-1.083289;1.691012;-1.076802;1.684924;
637946247518832236;1450.679;17;6;4.5;0.1;2.2;1610;2.79503105590062;-0.7070671;2.342648;-0.7346409;2.320423;0.9526281;0.9500003;0.930496;0.9633243;
637946247532815363;1452.078;17;6;4.5;0.1;2.2;1399;3.21658327376698;0.3762226;0.4663382;0.4080946;0.4843833;-0.7070671;2.342648;-0.7346409;2.320423;
637946247563802301;1455.177;17;6;1.5;1.1;2;1799;0.833796553640912;-0.3420197;0.5603072;-0.08505995;0.9916409;0;2.5;0.1285023;2.149638;
637946247573804545;1456.176;17;6;1.5;1.1;2;999;1.5015015015015;0.6427875;2.266045;0.4550066;2.00761;-0.3420197;0.5603072;-0.08505995;0.9916409;
637946247582796557;1457.076;17;6;1.5;1.1;2;900;1.66666666666667;-0.8660251;0.9999995;-0.6520119;1.315732;0.6427875;2.266045;0.4550066;2.00761;
637946247591788572;1457.975;17;6;1.5;1.1;2;899;1.66852057842047;0.9848077;1.673648;0.5562883;1.5969;-0.8660251;0.9999995;-0.6520119;1.315732;
637946247602791036;1459.075;17;6;1.5;1.1;2;1099;1.36487716105551;-0.9848078;1.673648;-0.5472094;1.673612;0.9848077;1.673648;0.5562883;1.5969;
637946247611783051;1459.974;17;6;1.5;1.1;2;899;1.66852057842047;0.8660256;1;0.7868325;1.455923;-0.9848078;1.673648;-0.5472094;1.673612;
637946247627776632;1461.574;17;6;1.5;1.1;2;1599;0.938086303939963;-0.6427882;2.266044;-0.2770747;1.986676;0.8660256;1;0.7868325;1.455923;
637946247666755367;1465.472;17;6;1.5;1.1;2;3898;0.384812724474089;0.3420205;0.5603075;0.2799058;1.011289;-0.6427882;2.266044;-0.2770747;1.986676;
637946247690860765;1467.882;17;6;2.5;0.3;1.4;1100;2.27272727272727;-0.2394138;0.8422151;-0.2089228;0.9029367;0;2.2;0.03173133;2.137256;
637946247712843702;1470.081;17;6;2.5;0.3;1.4;2199;1.1368804001819;0.4499513;2.036231;0.4041744;1.953203;-0.2394138;0.8422151;-0.2089228;0.9029367;
637946247730843543;1471.88;17;6;2.5;0.3;1.4;1799;1.38966092273485;-0.6062176;1.15;-0.5541987;1.219842;0.4499513;2.036231;0.4041744;1.953203;
637946247739095394;1472.713;17;6;2.5;0.3;1.4;833;3.00120048019208;0.6893654;1.621554;0.5430946;1.59245;-0.6062176;1.15;-0.5541987;1.219842;
637946247749827795;1473.779;17;6;2.5;0.3;1.4;1066;2.34521575984991;-0.6893655;1.621553;-0.6240488;1.628563;0.6893654;1.621554;0.5430946;1.59245;
637946247758821460;1474.679;17;6;2.5;0.3;1.4;900;2.77777777777778;0.6062179;1.15;0.6243183;1.234933;-0.6893655;1.621553;-0.6240488;1.628563;
637946247789815650;1477.777;17;6;2.5;0.3;1.4;3099;0.806711842529848;-0.4499517;2.036231;-0.3591185;2.036172;0.6062179;1.15;0.6243183;1.234933;
637946247800808112;1478.877;17;6;2.5;0.3;1.4;1100;2.27272727272727;0.2394144;0.8422153;0.1926358;0.9144214;-0.4499517;2.036231;-0.3591185;2.036172;
637946247822903063;1481.087;17;6;3;0.2;1.4;1211;2.47729149463254;-0.2394138;0.8422151;-0.2112531;0.8968406;0;2.2;0.03965445;2.20654;
637946247834905752;1482.286;17;6;3;0.2;1.4;1200;2.5;0.4499513;2.036231;0.4620667;2.002868;-0.2394138;0.8422151;-0.2112531;0.8968406;
637946247857900905;1484.586;17;6;3;0.2;1.4;2300;1.30434782608696;-0.6062176;1.15;-0.5463583;1.196931;0.4499513;2.036231;0.4620667;2.002868;
637946247870883811;1485.884;17;6;3;0.2;1.4;1298;2.31124807395994;0.6893654;1.621554;0.5947617;1.59345;-0.6062176;1.15;-0.5463583;1.196931;
637946247882886499;1487.084;17;6;3;0.2;1.4;1200;2.5;-0.6893655;1.621553;-0.6512605;1.604507;0.6893654;1.621554;0.5947617;1.59345;
637946247893868958;1488.183;17;6;3;0.2;1.4;1099;2.72975432211101;0.6062179;1.15;0.5658759;1.195666;-0.6893655;1.621553;-0.6512605;1.604507;
637946247907872095;1489.583;17;6;3;0.2;1.4;1400;2.14285714285714;-0.4499517;2.036231;-0.408483;1.979695;0.6062179;1.15;0.5658759;1.195666;
637946247926866352;1491.482;17;6;3;0.2;1.4;1899;1.57977883096367;0.2394144;0.8422153;0.2413741;0.9110675;-0.4499517;2.036231;-0.408483;1.979695;
637946247968945772;1495.691;17;6;3.5;0.2;2;3009;1.16317713526088;-0.3420197;0.5603072;-0.328685;0.6144117;0;2.5;0.05533449;2.432256;
637946248008944738;1499.691;17;6;3.5;0.2;2;4000;0.875;0.6427875;2.266045;0.5905842;2.265604;-0.3420197;0.5603072;-0.328685;0.6144117;
637946248067908929;1505.586;17;6;3.5;0.2;2;5896;0.593622795115332;-0.8660251;0.9999995;-0.8216425;1.050484;0.6427875;2.266045;0.5905842;2.265604;
637946248081902063;1506.986;17;6;3.5;0.2;2;1400;2.5;0.9848077;1.673648;0.9377331;1.643042;-0.8660251;0.9999995;-0.8216425;1.050484;
637946248095895200;1508.385;17;6;3.5;0.2;2;1399;2.50178699070765;-0.9848078;1.673648;-0.9099241;1.673434;0.9848077;1.673648;0.9377331;1.643042;
637946248109000257;1509.696;17;6;3.5;0.2;2;1310;2.67175572519084;0.8660256;1;0.8645571;1.074721;-0.9848078;1.673648;-0.9099241;1.673434;
637946248131992256;1511.995;17;6;3.5;0.2;2;2299;1.52240104393214;-0.6427882;2.266044;-0.5915161;2.249166;0.8660256;1;0.8645571;1.074721;
637946248145981042;1513.394;17;6;3.5;0.2;2;1399;2.50178699070765;0.3420205;0.5603075;0.3311043;0.6575899;-0.6427882;2.266044;-0.5915161;2.249166;
637946248167970770;1515.593;17;6;2;0.6;1.8;1099;1.81983621474067;-0.3078177;0.6542765;-0.1645736;0.8555603;0;2.4;0.1129952;2.249997;
637946248175961143;1516.392;17;6;2;0.6;1.8;800;2.5;0.5785087;2.18944;0.4443738;2.04166;-0.3078177;0.6542765;-0.1645736;0.8555603;
637946248186960535;1517.492;17;6;2;0.6;1.8;1100;1.81818181818182;-0.7794226;1.05;-0.5926483;1.158099;0.5785087;2.18944;0.4443738;2.04166;
637946248194960244;1518.292;17;6;2;0.6;1.8;799;2.50312891113892;0.8863269;1.656283;0.7378069;1.662731;-0.7794226;1.05;-0.5926483;1.158099;
637946248204950318;1519.291;17;6;2;0.6;1.8;1000;2;-0.8863271;1.656283;-0.646871;1.675439;0.8863269;1.656283;0.7378069;1.662731;
637946248215060212;1520.302;17;6;2;0.6;1.8;1010;1.98019801980198;0.779423;1.05;0.7026269;1.238613;-0.8863271;1.656283;-0.646871;1.675439;
637946248225050326;1521.301;17;6;2;0.6;1.8;1000;2;-0.5785094;2.18944;-0.445263;2.094623;0.779423;1.05;0.7026269;1.238613;
637946248238041760;1522.601;17;6;2;0.6;1.8;1299;1.53964588144727;0.3078185;0.6542768;0.2366693;0.9280572;-0.5785094;2.18944;-0.445263;2.094623;
637946248273033585;1526.099;17;6;4;0.1;1.4;1100;3.63636363636364;-0.2394138;0.8422151;-0.2399637;0.8412751;0;2.2;0.0100483;2.166086;
637946248286026497;1527.399;17;6;4;0.1;1.4;1299;3.07929176289453;0.4499513;2.036231;0.425009;1.996782;-0.2394138;0.8422151;-0.2399637;0.8412751;
637946248314012765;1530.197;17;6;4;0.1;1.4;2799;1.4290818149339;-0.6062176;1.15;-0.5980759;1.15893;0.4499513;2.036231;0.425009;1.996782;
637946248336007698;1532.396;17;6;4;0.1;1.4;2199;1.81900864029104;0.6893654;1.621554;0.680017;1.628155;-0.6062176;1.15;-0.5980759;1.15893;
637946248379087340;1536.705;17;6;4;0.1;1.4;4309;0.928289626363425;-0.6893655;1.621553;-0.6682552;1.613037;0.6893654;1.621554;0.680017;1.628155;
637946248393090477;1538.105;17;6;4;0.1;1.4;1400;2.85714285714286;0.6062179;1.15;0.6218404;1.180845;-0.6893655;1.621553;-0.6682552;1.613037;
637946248413076592;1540.104;17;6;4;0.1;1.4;1999;2.00100050025012;-0.4499517;2.036231;-0.4454369;1.992264;0.6062179;1.15;0.6218404;1.180845;
637946248434065048;1542.203;17;6;4;0.1;1.4;2099;1.90566936636494;0.2394144;0.8422153;0.2312754;0.852706;-0.4499517;2.036231;-0.4454369;1.992264;
637946249185290696;1617.323;17;7;2.5;0.3;1.4;900;2.77777777777778;-0.2394138;0.8422151;-0.1543299;0.8408769;0;2.2;0.008203255;2.147811;
637946249195282931;1618.323;17;7;2.5;0.3;1.4;1000;2.5;0.4499513;2.036231;0.4030803;1.985738;-0.2394138;0.8422151;-0.1543299;0.8408769;
637946249206285398;1619.423;17;7;2.5;0.3;1.4;1100;2.27272727272727;-0.6062176;1.15;-0.5638357;1.199147;0.4499513;2.036231;0.4030803;1.985738;
637946249216277633;1620.422;17;7;2.5;0.3;1.4;999;2.5025025025025;0.6893654;1.621554;0.6713978;1.581503;-0.6062176;1.15;-0.5638357;1.199147;
637946249227380122;1621.534;17;7;2.5;0.3;1.4;1112;2.24820143884892;-0.6893655;1.621553;-0.7107038;1.621698;0.6893654;1.621554;0.6713978;1.581503;
637946249238362586;1622.632;17;7;2.5;0.3;1.4;1098;2.27686703096539;0.6062179;1.15;0.6596614;1.228802;-0.6893655;1.621553;-0.7107038;1.621698;
637946249247354595;1623.532;17;7;2.5;0.3;1.4;900;2.77777777777778;-0.4499517;2.036231;-0.4724094;1.954512;0.6062179;1.15;0.6596614;1.228802;
637946249264348405;1625.231;17;7;2.5;0.3;1.4;1699;1.47145379635079;0.2394144;0.8422153;0.2205746;0.9581838;-0.4499517;2.036231;-0.4724094;1.954512;
637946249287333552;1627.53;17;7;2;0.6;1.8;1000;2;-0.3078177;0.6542765;-0.2061805;0.8270646;0;2.4;0.06105037;2.214056;
637946249303327134;1629.129;17;7;2;0.6;1.8;1599;1.25078173858662;0.5785087;2.18944;0.4302638;1.995223;-0.3078177;0.6542765;-0.2061805;0.8270646;
637946249314319595;1630.228;17;7;2;0.6;1.8;1099;1.81983621474067;-0.7794226;1.05;-0.608425;1.218847;0.5785087;2.18944;0.4302638;1.995223;
637946249332313628;1632.028;17;7;2;0.6;1.8;1799;1.11172873818788;0.8863269;1.656283;0.6329816;1.617073;-0.7794226;1.05;-0.608425;1.218847;
637946249345306536;1633.327;17;7;2;0.6;1.8;1299;1.53964588144727;-0.8863271;1.656283;-0.6670429;1.700581;0.8863269;1.656283;0.6329816;1.617073;
637946249354308554;1634.227;17;7;2;0.6;1.8;900;2.22222222222222;0.779423;1.05;0.6407272;1.193927;-0.8863271;1.656283;-0.6670429;1.700581;
637946249362300345;1635.026;17;7;2;0.6;1.8;800;2.5;-0.5785094;2.18944;-0.319011;2.088074;0.779423;1.05;0.6407272;1.193927;
637946249385405519;1637.336;17;7;2;0.6;1.8;2310;0.865800865800866;0.3078185;0.6542768;0.2091609;0.9035228;-0.5785094;2.18944;-0.319011;2.088074;
637946249408390669;1639.635;17;7;3.5;0.2;2;1199;2.91909924937448;-0.3420197;0.5603072;-0.3004273;0.650064;0;2.5;0.0300153;2.468101;
637946249420383354;1640.835;17;7;3.5;0.2;2;1199;2.91909924937448;0.6427875;2.266045;0.6166116;2.201161;-0.3420197;0.5603072;-0.3004273;0.650064;
637946249439380056;1642.734;17;7;3.5;0.2;2;1900;1.84210526315789;-0.8660251;0.9999995;-0.7840257;1.044155;0.6427875;2.266045;0.6166116;2.201161;
637946249451582507;1643.961;17;7;3.5;0.2;2;1227;2.85248573757131;0.9848077;1.673648;0.8998111;1.622102;-0.8660251;0.9999995;-0.7840257;1.044155;
637946249462364923;1645.032;17;7;3.5;0.2;2;1071;3.26797385620915;-0.9848078;1.673648;-0.9036636;1.67617;0.9848077;1.673648;0.8998111;1.622102;
637946249474367613;1646.232;17;7;3.5;0.2;2;1200;2.91666666666667;0.8660256;1;0.7739504;1.034094;-0.9848078;1.673648;-0.9036636;1.67617;
637946249486353970;1647.432;17;7;3.5;0.2;2;1199;2.91909924937448;-0.6427882;2.266044;-0.6551967;2.23061;0.8660256;1;0.7739504;1.034094;
637946249498350525;1648.631;17;7;3.5;0.2;2;1200;2.91666666666667;0.3420205;0.5603075;0.2683582;0.5755941;-0.6427882;2.266044;-0.6551967;2.23061;
637946249533448389;1652.141;17;7;3;0.2;1.4;1100;2.72727272727273;-0.2394138;0.8422151;-0.189093;0.928485;0;2.2;0.01606709;2.138989;
637946249550692251;1653.872;17;7;3;0.2;1.4;1732;1.73210161662818;0.4499513;2.036231;0.4190541;1.941328;-0.2394138;0.8422151;-0.189093;0.928485;
637946249561424656;1654.939;17;7;3;0.2;1.4;1067;2.8116213683224;-0.6062176;1.15;-0.5731959;1.138598;0.4499513;2.036231;0.4190541;1.941328;
637946249570426672;1655.839;17;7;3;0.2;1.4;900;3.33333333333333;0.6893654;1.621554;0.6225593;1.610418;-0.6062176;1.15;-0.5731959;1.138598;
637946249580424928;1656.838;17;7;3;0.2;1.4;1000;3;-0.6893655;1.621553;-0.6720001;1.634756;0.6893654;1.621554;0.6225593;1.610418;
637946249601413350;1658.937;17;7;3;0.2;1.4;2099;1.4292520247737;0.6062179;1.15;0.6151637;1.170322;-0.6893655;1.621553;-0.6720001;1.634756;
637946249617403397;1660.536;17;7;3;0.2;1.4;1599;1.87617260787993;-0.4499517;2.036231;-0.4324357;1.948051;0.6062179;1.15;0.6151637;1.170322;
637946249625612711;1661.365;17;7;3;0.2;1.4;828;3.6231884057971;0.2394144;0.8422153;0.1870679;0.9269993;-0.4499517;2.036231;-0.4324357;1.948051;
637946249646502833;1663.446;17;7;1.5;1.1;2;1099;1.36487716105551;-0.3420197;0.5603072;-0.07550256;0.9795681;0;2.5;0.1350768;2.163027;
637946249667489372;1665.545;17;7;1.5;1.1;2;2099;0.714626012386851;0.6427875;2.266045;0.4135861;2.061364;-0.3420197;0.5603072;-0.07550256;0.9795681;
637946249677491613;1666.545;17;7;1.5;1.1;2;1000;1.5;-0.8660251;0.9999995;-0.5340813;1.314262;0.6427875;2.266045;0.4135861;2.061364;
637946249683482955;1667.145;17;7;1.5;1.1;2;600;2.5;0.9848077;1.673648;0.4844009;1.615777;-0.8660251;0.9999995;-0.5340813;1.314262;
637946249698486316;1668.644;17;7;1.5;1.1;2;1499;1.00066711140761;-0.9848078;1.673648;-0.4377214;1.672924;0.9848077;1.673648;0.4844009;1.615777;
637946249706588127;1669.455;17;7;1.5;1.1;2;811;1.84956843403206;0.8660256;1;0.5221645;1.326442;-0.9848078;1.673648;-0.4377214;1.672924;
637946249714579921;1670.254;17;7;1.5;1.1;2;800;1.875;-0.6427882;2.266044;-0.2633291;2.006567;0.8660256;1;0.5221645;1.326442;
637946249723581937;1671.154;17;7;1.5;1.1;2;900;1.66666666666667;0.3420205;0.5603075;0.1391704;1.033294;-0.6427882;2.266044;-0.2633291;2.006567;
637946249752568429;1674.053;17;7;4;0.1;1.4;1100;3.63636363636364;-0.2394138;0.8422151;-0.1984351;0.870665;0;2.2;0.005434435;2.186858;
637946249765561343;1675.352;17;7;4;0.1;1.4;1299;3.07929176289453;0.4499513;2.036231;0.4294128;2.023158;-0.2394138;0.8422151;-0.1984351;0.870665;
637946249776553807;1676.451;17;7;4;0.1;1.4;1100;3.63636363636364;-0.6062176;1.15;-0.609002;1.139407;0.4499513;2.036231;0.4294128;2.023158;
637946249786546042;1677.451;17;7;4;0.1;1.4;1000;4;0.6893654;1.621554;0.678002;1.642962;-0.6062176;1.15;-0.609002;1.139407;
637946249797798557;1678.583;17;7;4;0.1;1.4;1132;3.53356890459364;-0.6893655;1.621553;-0.6623549;1.582727;0.6893654;1.621554;0.678002;1.642962;
637946249810541417;1679.85;17;7;4;0.1;1.4;1266;3.15955766192733;0.6062179;1.15;0.5942993;1.192173;-0.6893655;1.621553;-0.6623549;1.582727;
637946249821533878;1680.95;17;7;4;0.1;1.4;1100;3.63636363636364;-0.4499517;2.036231;-0.4159022;2.042445;0.6062179;1.15;0.5942993;1.192173;
637946249832526346;1682.049;17;7;4;0.1;1.4;1099;3.63967242948135;0.2394144;0.8422153;0.2234227;0.8196458;-0.4499517;2.036231;-0.4159022;2.042445;
637946249866623981;1685.458;17;7;4.5;0.1;2.2;2110;2.13270142180095;-0.3762217;0.4663379;-0.3406543;0.4995511;0;2.6;-0.002723711;2.579645;
637946249881617338;1686.958;17;7;4.5;0.1;2.2;1499;3.00200133422282;0.7070663;2.342649;0.6935129;2.328083;-0.3762217;0.4663379;-0.3406543;0.4995511;
637946249893610024;1688.157;17;7;4.5;0.1;2.2;1199;3.75312760633862;-0.9526277;0.9499994;-0.9471791;0.9328239;0.7070663;2.342649;0.6935129;2.328083;
637946249906602935;1689.457;17;7;4.5;0.1;2.2;1300;3.46153846153846;1.083289;1.691013;1.046851;1.685382;-0.9526277;0.9499994;-0.9471791;0.9328239;
637946249921596296;1690.956;17;7;4.5;0.1;2.2;1499;3.00200133422282;-1.083289;1.691012;-1.065307;1.693521;1.083289;1.691013;1.046851;1.685382;
637946249935894629;1692.393;17;7;4.5;0.1;2.2;1437;3.13152400835073;0.9526281;0.9500003;0.9948277;0.9648699;-1.083289;1.691012;-1.065307;1.693521;
637946249948583739;1693.655;17;7;4.5;0.1;2.2;1262;3.56576862123613;-0.7070671;2.342648;-0.6917217;2.341329;0.9526281;0.9500003;0.9948277;0.9648699;
637946249973569334;1696.153;17;7;4.5;0.1;2.2;2499;1.80072028811525;0.3762226;0.4663382;0.377813;0.4940403;-0.7070671;2.342648;-0.6917217;2.341329;
