637949455676111457;217.3;18;0;3.5;0.2;2;1897;1.8450184501845;-0.3420197;0.5603072;-0.3737615;0.5418404;0;2.5;-0.001507588;2.475954;
637949455690093200;218.6994;18;0;3.5;0.2;2;1399;2.50178699070765;0.6427875;2.266045;0.6127728;2.215851;-0.3420197;0.5603072;-0.3737615;0.5418404;
637949455710075691;220.6982;18;0;3.5;0.2;2;1999;1.75087543771886;-0.8660251;0.9999995;-0.8415731;1.05204;0.6427875;2.266045;0.6127728;2.215851;
637949455729068064;222.5975;18;0;3.5;0.2;2;1899;1.84307530279094;0.9848077;1.673648;0.9366499;1.665288;-0.8660251;0.9999995;-0.8415731;1.05204;
637949455751160818;224.8076;18;0;3.5;0.2;2;2210;1.58371040723982;-0.9848078;1.673648;-0.9188312;1.722914;0.9848077;1.673648;0.9366499;1.665288;
637949455769153068;226.6069;18;0;3.5;0.2;2;1799;1.94552529182879;0.8660256;1;0.826347;1.076108;-0.9848078;1.673648;-0.9188312;1.722914;
637949455787145314;228.4059;18;0;3.5;0.2;2;1799;1.94552529182879;-0.6427882;2.266044;-0.6046532;2.318955;0.8660256;1;0.826347;1.076108;
637949455801137057;229.8054;18;0;3.5;0.2;2;1399;2.50178699070765;0.3420205;0.5603075;0.3312675;0.6149756;-0.6427882;2.266044;-0.6046532;2.318955;
637949455828120426;232.5039;18;0;3;0.2;1.4;1199;2.50208507089241;-0.2394138;0.8422151;-0.2182638;0.876496;0;2.2;0.02631181;2.226959;
637949455844112421;234.1032;18;0;3;0.2;1.4;1599;1.87617260787993;0.4499513;2.036231;0.4045562;2.064574;-0.2394138;0.8422151;-0.2182638;0.876496;
637949455859104290;235.6027;18;0;3;0.2;1.4;1499;2.00133422281521;-0.6062176;1.15;-0.5845474;1.195526;0.4499513;2.036231;0.4045562;2.064574;
637949455870095663;236.702;18;0;3;0.2;1.4;1099;2.72975432211101;0.6893654;1.621554;0.6826895;1.6538;-0.6062176;1.15;-0.5845474;1.195526;
637949455879096788;237.6019;18;0;3;0.2;1.4;900;3.33333333333333;-0.6893655;1.621553;-0.6514323;1.619716;0.6893654;1.621554;0.6826895;1.6538;
637949455891198296;238.8126;18;0;3;0.2;1.4;1211;2.47729149463254;0.6062179;1.15;0.614531;1.173733;-0.6893655;1.621553;-0.6514323;1.619716;
637949455903189796;240.0118;18;0;3;0.2;1.4;1199;2.50208507089241;-0.4499517;2.036231;-0.4711873;1.980501;0.6062179;1.15;0.614531;1.173733;
637949455915182429;241.2115;18;0;3;0.2;1.4;1200;2.5;0.2394144;0.8422153;0.2273318;0.9234838;-0.4499517;2.036231;-0.4711873;1.980501;
637949455943165921;244.0098;18;0;4.5;0.1;2.2;1599;2.81425891181989;-0.3762217;0.4663379;-0.38028;0.4931823;0;2.6;-0.03831539;2.580925;
637949455962272988;245.9202;18;0;4.5;0.1;2.2;1910;2.35602094240838;0.7070663;2.342649;0.7114769;2.326785;-0.3762217;0.4663379;-0.38028;0.4931823;
637949455994255209;249.1186;18;0;4.5;0.1;2.2;3198;1.40712945590994;-0.9526277;0.9499994;-0.9492847;0.9718065;0.7070663;2.342649;0.7114769;2.326785;
637949456015237824;251.2176;18;0;4.5;0.1;2.2;2099;2.14387803716055;1.083289;1.691013;1.059568;1.693796;-0.9526277;0.9499994;-0.9492847;0.9718065;
637949456032229947;252.9168;18;0;4.5;0.1;2.2;1699;2.64861683343143;-1.083289;1.691012;-1.063198;1.733879;1.083289;1.691013;1.059568;1.693796;
637949456053332580;255.0269;18;0;4.5;0.1;2.2;2110;2.13270142180095;0.9526281;0.9500003;0.9346611;0.942866;-1.083289;1.691012;-1.063198;1.733879;
637949456084306447;258.1255;18;0;4.5;0.1;2.2;3099;1.45208131655373;-0.7070671;2.342648;-0.6691984;2.336897;0.9526281;0.9500003;0.9346611;0.942866;
637949456104298941;260.1245;18;0;4.5;0.1;2.2;1999;2.25112556278139;0.3762226;0.4663382;0.3547201;0.4960265;-0.7070671;2.342648;-0.6691984;2.336897;
637949456130282184;262.7233;18;0;1.5;1.1;2;1199;1.25104253544621;-0.3420197;0.5603072;-0.2399602;0.9640234;0;2.5;0.02270076;2.422246;
637949456138273176;263.5228;18;0;1.5;1.1;2;799;1.87734668335419;0.6427875;2.266045;0.5076112;2.059942;-0.3420197;0.5603072;-0.2399602;0.9640234;
637949456148274428;264.5226;18;0;1.5;1.1;2;1000;1.5;-0.8660251;0.9999995;-0.5863422;1.348416;0.6427875;2.266045;0.5076112;2.059942;
637949456156265428;265.3221;18;0;1.5;1.1;2;799;1.87734668335419;0.9848077;1.673648;1.017274;1.679768;-0.8660251;0.9999995;-0.5863422;1.348416;
637949456172257422;266.9212;18;0;1.5;1.1;2;1599;0.938086303939963;-0.9848078;1.673648;-0.5356857;1.802021;0.9848077;1.673648;1.017274;1.679768;
637949456182258672;267.9208;18;0;1.5;1.1;2;1000;1.5;0.8660256;1;0.794506;1.341926;-0.9848078;1.673648;-0.5356857;1.802021;
637949456198240659;269.5202;18;0;1.5;1.1;2;1599;0.938086303939963;-0.6427882;2.266044;-0.4463712;2.230426;0.8660256;1;0.794506;1.341926;
637949456215352801;271.2305;18;0;1.5;1.1;2;1710;0.87719298245614;0.3420205;0.5603075;0.4549855;0.8971288;-0.6427882;2.266044;-0.4463712;2.230426;
637949456246326665;274.329;18;0;2;0.6;1.8;1399;1.42959256611866;-0.3078177;0.6542765;-0.2536962;0.7767757;0;2.4;0.01445176;2.343624;
637949456257438053;275.4398;18;0;2;0.6;1.8;1111;1.8001800180018;0.5785087;2.18944;0.5684944;2.218805;-0.3078177;0.6542765;-0.2536962;0.7767757;
637949456271424846;276.839;18;0;2;0.6;1.8;1399;1.42959256611866;-0.7794226;1.05;-0.6446186;1.166152;0.5785087;2.18944;0.5684944;2.218805;
637949456288412312;278.5382;18;0;2;0.6;1.8;1699;1.17716303708064;0.8863269;1.656283;0.837953;1.728353;-0.7794226;1.05;-0.6446186;1.166152;
637949456305404513;280.2375;18;0;2;0.6;1.8;1699;1.17716303708064;-0.8863271;1.656283;-0.7168702;1.702826;0.8863269;1.656283;0.837953;1.728353;
637949456317396352;281.4368;18;0;2;0.6;1.8;1199;1.66805671392827;0.779423;1.05;0.6945386;1.140102;-0.8863271;1.656283;-0.7168702;1.702826;
637949456332393049;282.9362;18;0;2;0.6;1.8;1499;1.33422281521014;-0.5785094;2.18944;-0.5727717;2.252496;0.779423;1.05;0.6945386;1.140102;
637949456345496825;284.2467;18;0;2;0.6;1.8;1311;1.5255530129672;0.3078185;0.6542768;0.2690832;0.8263242;-0.5785094;2.18944;-0.5727717;2.252496;
637949456368490350;286.5457;18;0;2.5;0.3;1.4;1099;2.27479526842584;-0.2394138;0.8422151;-0.2643825;0.9545413;0;2.2;0.005560658;2.252639;
637949456379482042;287.6453;18;0;2.5;0.3;1.4;1100;2.27272727272727;0.4499513;2.036231;0.4505555;2.0609;-0.2394138;0.8422151;-0.2643825;0.9545413;
637949456389473566;288.6447;18;0;2.5;0.3;1.4;999;2.5025025025025;-0.6062176;1.15;-0.5602666;1.217266;0.4499513;2.036231;0.4505555;2.0609;
637949456400465252;289.7442;18;0;2.5;0.3;1.4;1099;2.27479526842584;0.6893654;1.621554;0.6620604;1.681316;-0.6062176;1.15;-0.5602666;1.217266;
637949456416457705;291.3434;18;0;2.5;0.3;1.4;1599;1.56347717323327;-0.6893655;1.621553;-0.6349725;1.655379;0.6893654;1.621554;0.6620604;1.681316;
637949456430449850;292.7429;18;0;2.5;0.3;1.4;1400;1.78571428571429;0.6062179;1.15;0.641067;1.212906;-0.6893655;1.621553;-0.6349725;1.655379;
637949456445442147;294.2422;18;0;2.5;0.3;1.4;1499;1.66777851901268;-0.4499517;2.036231;-0.4037411;2.023803;0.6062179;1.15;0.641067;1.212906;
637949456461544615;295.8528;18;0;2.5;0.3;1.4;1611;1.55183116076971;0.2394144;0.8422153;0.2447009;0.9644943;-0.4499517;2.036231;-0.4037411;2.023803;
637949456505521356;300.2503;18;0;4;0.1;1.4;1599;2.50156347717323;-0.2394138;0.8422151;-0.2355248;0.8691318;0;2.2;0.01446662;2.180943;
637949456546497637;304.3485;18;0;4;0.1;1.4;4098;0.976085895558809;0.4499513;2.036231;0.4632058;2.037555;-0.2394138;0.8422151;-0.2355248;0.8691318;
637949456579492699;307.6473;18;0;4;0.1;1.4;3299;1.21248863291907;-0.6062176;1.15;-0.5767412;1.161124;0.4499513;2.036231;0.4632058;2.037555;
637949456602586235;309.9571;18;0;4;0.1;1.4;2310;1.73160173160173;0.6893654;1.621554;0.6655831;1.613752;-0.6062176;1.15;-0.5767412;1.161124;
637949456624572745;312.156;18;0;4;0.1;1.4;2199;1.81900864029104;-0.6893655;1.621553;-0.6676546;1.617907;0.6893654;1.621554;0.6655831;1.613752;
637949456641565347;313.8553;18;0;4;0.1;1.4;1699;2.35432607416127;0.6062179;1.15;0.586753;1.195752;-0.6893655;1.621553;-0.6676546;1.617907;
637949456664548870;316.1541;18;0;4;0.1;1.4;2299;1.73988690735102;-0.4499517;2.036231;-0.4315481;2.027395;0.6062179;1.15;0.586753;1.195752;
637949456679542143;317.6535;18;0;4;0.1;1.4;1499;2.66844563042028;0.2394144;0.8422153;0.2375501;0.892047;-0.4499517;2.036231;-0.4315481;2.027395;
637949457693886207;419.0954;18;1;1.5;1.1;2;1000;1.5;-0.3420197;0.5603072;-0.2285993;0.8498162;0;2.5;-0.005868698;2.499158;
637949457703887548;420.0951;18;1;1.5;1.1;2;1000;1.5;0.6427875;2.266045;0.569002;2.19392;-0.3420197;0.5603072;-0.2285993;0.8498162;
637949457716885800;421.3944;18;1;1.5;1.1;2;1299;1.15473441108545;-0.8660251;0.9999995;-0.6644459;1.135405;0.6427875;2.266045;0.569002;2.19392;
637949457726907342;422.3952;18;1;1.5;1.1;2;1001;1.4985014985015;0.9848077;1.673648;0.8636434;1.793965;-0.8660251;0.9999995;-0.6644459;1.135405;
637949457735868715;423.2935;18;1;1.5;1.1;2;898;1.67037861915367;-0.9848078;1.673648;-0.7987769;1.717453;0.9848077;1.673648;0.8636434;1.793965;
637949457750861011;424.7929;18;1;1.5;1.1;2;1499;1.00066711140761;0.8660256;1;0.8490176;1.160883;-0.9848078;1.673648;-0.7987769;1.717453;
637949457765863314;426.2928;18;1;1.5;1.1;2;1500;1;-0.6427882;2.266044;-0.5095567;2.32235;0.8660256;1;0.8490176;1.160883;
637949457777955163;427.5027;18;1;1.5;1.1;2;1210;1.2396694214876;0.3420205;0.5603075;0.315175;0.8846806;-0.6427882;2.266044;-0.5095567;2.32235;
637949457817931293;431.5008;18;1;4.5;0.1;2.2;1899;2.3696682464455;-0.3762217;0.4663379;-0.380724;0.5029453;0;2.6;-0.004492448;2.562833;
637949457832923593;433.0001;18;1;4.5;0.1;2.2;1499;3.00200133422282;0.7070663;2.342649;0.6955698;2.351413;-0.3762217;0.4663379;-0.380724;0.5029453;
637949457866908803;436.3983;18;1;4.5;0.1;2.2;3398;1.32430841671572;-0.9526277;0.9499994;-0.9180886;0.9726089;0.7070663;2.342649;0.6955698;2.351413;
637949457888892173;438.5975;18;1;4.5;0.1;2.2;2199;2.04638472032742;1.083289;1.691013;1.04898;1.704437;-0.9526277;0.9499994;-0.9180886;0.9726089;
637949457915003869;441.2084;18;1;4.5;0.1;2.2;2611;1.72347759479127;-1.083289;1.691012;-1.043466;1.678915;1.083289;1.691013;1.04898;1.704437;
637949457933979590;443.1064;18;1;4.5;0.1;2.2;1898;2.3709167544784;0.9526281;0.9500003;0.9744062;0.9763528;-1.083289;1.691012;-1.043466;1.678915;
637949457955974772;445.3055;18;1;4.5;0.1;2.2;2199;2.04638472032742;-0.7070671;2.342648;-0.7098805;2.336515;0.9526281;0.9500003;0.9744062;0.9763528;
637949457971962291;446.9048;18;1;4.5;0.1;2.2;1599;2.81425891181989;0.3762226;0.4663382;0.3796361;0.5003361;-0.7070671;2.342648;-0.7098805;2.336515;
637949458000059297;449.7147;18;1;4;0.1;1.4;1310;3.05343511450382;-0.2394138;0.8422151;-0.2210632;0.8711976;0;2.2;0.04127283;2.215678;
637949458015052756;451.2139;18;1;4;0.1;1.4;1499;2.66844563042028;0.4499513;2.036231;0.4232842;2.031612;-0.2394138;0.8422151;-0.2210632;0.8711976;
637949458042037946;453.9125;18;1;4;0.1;1.4;2699;1.48203038162282;-0.6062176;1.15;-0.6112466;1.1589;0.4499513;2.036231;0.4232842;2.031612;
637949458056022779;455.312;18;1;4;0.1;1.4;1400;2.85714285714286;0.6893654;1.621554;0.702194;1.630384;-0.6062176;1.15;-0.6112466;1.1589;
637949458081015322;457.8109;18;1;4;0.1;1.4;2499;1.60064025610244;-0.6893655;1.621553;-0.7134673;1.634342;0.6893654;1.621554;0.702194;1.630384;
637949458096114048;459.3211;18;1;4;0.1;1.4;1510;2.64900662251656;0.6062179;1.15;0.6095968;1.180731;-0.6893655;1.621553;-0.7134673;1.634342;
637949458110112379;460.7208;18;1;4;0.1;1.4;1400;2.85714285714286;-0.4499517;2.036231;-0.4408669;2.025039;0.6062179;1.15;0.6095968;1.180731;
637949458134101349;463.1195;18;1;4;0.1;1.4;2399;1.66736140058358;0.2394144;0.8422153;0.2440377;0.8660933;-0.4499517;2.036231;-0.4408669;2.025039;
637949458154084512;465.1185;18;1;2;0.6;1.8;899;2.22469410456062;-0.3078177;0.6542765;-0.2165608;0.8727847;0;2.4;0.02910757;2.366786;
637949458171077117;466.8175;18;1;2;0.6;1.8;1699;1.17716303708064;0.5785087;2.18944;0.5161426;2.18607;-0.3078177;0.6542765;-0.2165608;0.8727847;
637949458182068802;467.9173;18;1;2;0.6;1.8;1100;1.81818181818182;-0.7794226;1.05;-0.6705597;1.169451;0.5785087;2.18944;0.5161426;2.18607;
637949458192068485;468.9171;18;1;2;0.6;1.8;1000;2;0.8863269;1.656283;0.8815403;1.744058;-0.7794226;1.05;-0.6705597;1.169451;
637949458207058605;470.4162;18;1;2;0.6;1.8;1499;1.33422281521014;-0.8863271;1.656283;-0.7019693;1.692151;0.8863269;1.656283;0.8815403;1.744058;
637949458219160459;471.6267;18;1;2;0.6;1.8;1210;1.65289256198347;0.779423;1.05;0.6992788;1.140533;-0.8863271;1.656283;-0.7019693;1.692151;
637949458229159914;472.626;18;1;2;0.6;1.8;999;2.002002002002;-0.5785094;2.18944;-0.4988985;2.207306;0.779423;1.05;0.6992788;1.140533;
637949458238149526;473.5257;18;1;2;0.6;1.8;900;2.22222222222222;0.3078185;0.6542768;0.2769887;0.8453602;-0.5785094;2.18944;-0.4988985;2.207306;
637949458267137467;476.4243;18;1;2.5;0.3;1.4;1200;2.08333333333333;-0.2394138;0.8422151;-0.1883544;0.9705306;0;2.2;-0.0396343;2.167018;
637949458284128178;478.1237;18;1;2.5;0.3;1.4;1699;1.47145379635079;0.4499513;2.036231;0.4478635;1.976209;-0.2394138;0.8422151;-0.1883544;0.9705306;
637949458307224971;480.4337;18;1;2.5;0.3;1.4;2310;1.08225108225108;-0.6062176;1.15;-0.496168;1.198777;0.4499513;2.036231;0.4478635;1.976209;
637949458319216802;481.633;18;1;2.5;0.3;1.4;1199;2.08507089241034;0.6893654;1.621554;0.6550541;1.63158;-0.6062176;1.15;-0.496168;1.198777;
637949458334209107;483.1324;18;1;2.5;0.3;1.4;1424;1.75561797752809;-0.6893655;1.621553;-0.6895943;1.686107;0.6893654;1.621554;0.6550541;1.63158;
637949458346200946;484.3318;18;1;2.5;0.3;1.4;1199;2.08507089241034;0.6062179;1.15;0.5801844;1.219573;-0.6893655;1.621553;-0.6895943;1.686107;
637949458360193092;485.7311;18;1;2.5;0.3;1.4;1399;1.78699070764832;-0.4499517;2.036231;-0.4296235;2.064457;0.6062179;1.15;0.5801844;1.219573;
637949458372194930;486.9307;18;1;2.5;0.3;1.4;1200;2.08333333333333;0.2394144;0.8422153;0.2434475;0.929283;-0.4499517;2.036231;-0.4296235;2.064457;
637949458395188455;489.2301;18;1;3;0.2;1.4;1199;2.50208507089241;-0.2394138;0.8422151;-0.21073;0.8763084;0;2.2;0.02094058;2.168948;
637949458409180598;490.6292;18;1;3;0.2;1.4;1399;2.14438884917798;0.4499513;2.036231;0.4167287;2.072818;-0.2394138;0.8422151;-0.21073;0.8763084;
637949458418171977;491.529;18;1;3;0.2;1.4;900;3.33333333333333;-0.6062176;1.15;-0.5729104;1.21723;0.4499513;2.036231;0.4167287;2.072818;
637949458446156266;494.327;18;1;3;0.2;1.4;2798;1.07219442458899;0.6893654;1.621554;0.664666;1.651853;-0.6062176;1.15;-0.5729104;1.21723;
637949458470249961;496.7373;18;1;3;0.2;1.4;2410;1.2448132780083;-0.6893655;1.621553;-0.6759368;1.627771;0.6893654;1.621554;0.664666;1.651853;
637949458483241952;498.0367;18;1;3;0.2;1.4;1299;2.3094688221709;0.6062179;1.15;0.6166879;1.194938;-0.6893655;1.621553;-0.6759368;1.627771;
637949458497234100;499.4358;18;1;3;0.2;1.4;1399;2.14438884917798;-0.4499517;2.036231;-0.3878115;2.049373;0.6062179;1.15;0.6166879;1.194938;
637949458509235944;500.6355;18;1;3;0.2;1.4;1200;2.5;0.2394144;0.8422153;0.2686783;0.9378128;-0.4499517;2.036231;-0.3878115;2.049373;
637949458541210831;503.8337;18;1;3.5;0.2;2;1699;2.06003531489111;-0.3420197;0.5603072;-0.3494101;0.6077951;0;2.5;-0.01654111;2.491374;
637949458553202678;505.0334;18;1;3.5;0.2;2;1200;2.91666666666667;0.6427875;2.266045;0.6223474;2.23621;-0.3420197;0.5603072;-0.3494101;0.6077951;
637949458568194977;506.5325;18;1;3.5;0.2;2;1499;2.33488992661775;-0.8660251;0.9999995;-0.7982118;1.056772;0.6427875;2.266045;0.6223474;2.23621;
637949458583187280;508.0317;18;1;3.5;0.2;2;1499;2.33488992661775;0.9848077;1.673648;0.9476082;1.7067;-0.8660251;0.9999995;-0.7982118;1.056772;
637949458593188807;509.0315;18;1;3.5;0.2;2;1000;3.5;-0.9848078;1.673648;-0.9196709;1.620515;0.9848077;1.673648;0.9476082;1.7067;
637949458626272937;512.341;18;1;3.5;0.2;2;3310;1.05740181268882;0.8660256;1;0.8344199;1.016419;-0.9848078;1.673648;-0.9196709;1.620515;
637949458640275085;513.7405;18;1;3.5;0.2;2;1399;2.50178699070765;-0.6427882;2.266044;-0.559662;2.260252;0.8660256;1;0.8344199;1.016419;
637949458650268009;514.74;18;1;3.5;0.2;2;1000;3.5;0.3420205;0.5603075;0.3560573;0.6442682;-0.6427882;2.266044;-0.559662;2.260252;
637949459234397757;573.1573;18;2;3;0.2;1.4;2110;1.4218009478673;-0.2394138;0.8422151;-0.2107568;0.9127238;0;2.2;-0.01319644;2.20106;
637949459244389288;574.1569;18;2;3;0.2;1.4;1000;3;0.4499513;2.036231;0.4547819;2.049525;-0.2394138;0.8422151;-0.2107568;0.9127238;
637949459253390670;575.0565;18;2;3;0.2;1.4;899;3.33704115684093;-0.6062176;1.15;-0.5489265;1.191827;0.4499513;2.036231;0.4547819;2.049525;
637949459263382200;576.0562;18;2;3;0.2;1.4;1000;3;0.6893654;1.621554;0.666649;1.673238;-0.6062176;1.15;-0.5489265;1.191827;
637949459273373731;577.0556;18;2;3;0.2;1.4;999;3.003003003003;-0.6893655;1.621553;-0.6689149;1.692876;0.6893654;1.621554;0.666649;1.673238;
637949459285365571;578.2548;18;2;3;0.2;1.4;1199;2.50208507089241;0.6062179;1.15;0.5814615;1.21677;-0.6893655;1.621553;-0.6689149;1.692876;
637949459296367257;579.3546;18;2;3;0.2;1.4;1100;2.72727272727273;-0.4499517;2.036231;-0.4349972;2.065842;0.6062179;1.15;0.5814615;1.21677;
637949459304358485;580.1539;18;2;3;0.2;1.4;799;3.75469336670839;0.2394144;0.8422153;0.2286418;0.9226924;-0.4499517;2.036231;-0.4349972;2.065842;
637949459339342056;583.6524;18;2;3.5;0.2;2;1099;3.18471337579618;-0.3420197;0.5603072;-0.345762;0.6591053;0;2.5;0.001517221;2.461149;
637949459353334200;585.0518;18;2;3.5;0.2;2;1399;2.50178699070765;0.6427875;2.266045;0.6350974;2.254826;-0.3420197;0.5603072;-0.345762;0.6591053;
637949459367326349;586.4513;18;2;3.5;0.2;2;1399;2.50178699070765;-0.8660251;0.9999995;-0.7905096;1.014319;0.6427875;2.266045;0.6350974;2.254826;
637949459381426436;587.8618;18;2;3.5;0.2;2;1411;2.48051027639972;0.9848077;1.673648;0.9482853;1.709316;-0.8660251;0.9999995;-0.7905096;1.014319;
637949459396418767;589.3608;18;2;3.5;0.2;2;1499;2.33488992661775;-0.9848078;1.673648;-0.9233285;1.677037;0.9848077;1.673648;0.9482853;1.709316;
637949459408416839;590.5602;18;2;3.5;0.2;2;1199;2.91909924937448;0.8660256;1;0.8750894;1.06037;-0.9848078;1.673648;-0.9233285;1.677037;
637949459420408678;591.7596;18;2;3.5;0.2;2;1199;2.91909924937448;-0.6427882;2.266044;-0.5904857;2.292317;0.8660256;1;0.8750894;1.06037;
637949459430400208;592.7594;18;2;3.5;0.2;2;1000;3.5;0.3420205;0.5603075;0.3442101;0.6368968;-0.6427882;2.266044;-0.5904857;2.292317;
637949459464385421;596.1577;18;2;4;0.1;1.4;1799;2.22345747637576;-0.2394138;0.8422151;-0.2291518;0.890021;0;2.2;0.02881366;2.231092;
637949459481378025;597.8569;18;2;4;0.1;1.4;1699;2.35432607416127;0.4499513;2.036231;0.4194913;2.012365;-0.2394138;0.8422151;-0.2291518;0.890021;
637949459497370477;599.4563;18;2;4;0.1;1.4;1599;2.50156347717323;-0.6062176;1.15;-0.572782;1.184364;0.4499513;2.036231;0.4194913;2.012365;
637949459507362009;600.4557;18;2;4;0.1;1.4;999;4.004004004004;0.6893654;1.621554;0.6807331;1.601759;-0.6062176;1.15;-0.572782;1.184364;
637949459532465855;602.966;18;2;4;0.1;1.4;2510;1.59362549800797;-0.6893655;1.621553;-0.6663307;1.616927;0.6893654;1.621554;0.6807331;1.601759;
637949459545447848;604.2651;18;2;4;0.1;1.4;1299;3.07929176289453;0.6062179;1.15;0.6004332;1.19906;-0.6893655;1.621553;-0.6663307;1.616927;
637949459558449839;605.5646;18;2;4;0.1;1.4;1299;3.07929176289453;-0.4499517;2.036231;-0.4084526;2.042005;0.6062179;1.15;0.6004332;1.19906;
637949459583433667;608.0633;18;2;4;0.1;1.4;2499;1.60064025610244;0.2394144;0.8422153;0.228536;0.8469768;-0.4499517;2.036231;-0.4084526;2.042005;
637949459600426273;609.7628;18;2;1.5;1.1;2;800;1.875;-0.3420197;0.5603072;-0.2062937;0.8946398;0;2.5;0.06999798;2.415702;
637949459607417345;610.4622;18;2;1.5;1.1;2;699;2.14592274678112;0.6427875;2.266045;0.5298015;2.154069;-0.3420197;0.5603072;-0.2062937;0.8946398;
637949459614418415;611.162;18;2;1.5;1.1;2;700;2.14285714285714;-0.8660251;0.9999995;-0.8147368;1.205453;0.6427875;2.266045;0.5298015;2.154069;
637949459621409489;611.8615;18;2;1.5;1.1;2;699;2.14592274678112;0.9848077;1.673648;0.8143871;1.686236;-0.8660251;0.9999995;-0.8147368;1.205453;
637949459628410563;612.5615;18;2;1.5;1.1;2;700;2.14285714285714;-0.9848078;1.673648;-0.678166;1.704992;0.9848077;1.673648;0.8143871;1.686236;
637949459635401640;613.2609;18;2;1.5;1.1;2;699;2.14592274678112;0.8660256;1;0.88553;1.248568;-0.9848078;1.673648;-0.678166;1.704992;
637949459644403014;614.1604;18;2;1.5;1.1;2;899;1.66852057842047;-0.6427882;2.266044;-0.4795818;2.171913;0.8660256;1;0.88553;1.248568;
637949459651394087;614.8602;18;2;1.5;1.1;2;700;2.14285714285714;0.3420205;0.5603075;0.3650509;0.9355656;-0.6427882;2.266044;-0.4795818;2.171913;
637949459667386540;616.4597;18;2;2.5;0.3;1.4;700;3.57142857142857;-0.2394138;0.8422151;-0.1861979;0.9164321;0;2.2;-0.03205558;2.137342;
637949459674487624;617.1702;18;2;2.5;0.3;1.4;711;3.51617440225035;0.4499513;2.036231;0.4446046;1.990431;-0.2394138;0.8422151;-0.1861979;0.9164321;
637949459685489314;618.2697;18;2;2.5;0.3;1.4;1099;2.27479526842584;-0.6062176;1.15;-0.5206689;1.215167;0.4499513;2.036231;0.4446046;1.990431;
637949459693487221;619.0696;18;2;2.5;0.3;1.4;800;3.125;0.6893654;1.621554;0.6449485;1.599038;-0.6062176;1.15;-0.5206689;1.215167;
637949459701485195;619.8691;18;2;2.5;0.3;1.4;800;3.125;-0.6893655;1.621553;-0.6746901;1.632155;0.6893654;1.621554;0.6449485;1.599038;
637949459708476269;620.5688;18;2;2.5;0.3;1.4;700;3.57142857142857;0.6062179;1.15;0.6350791;1.180264;-0.6893655;1.621553;-0.6746901;1.632155;
637949459719467953;621.6683;18;2;2.5;0.3;1.4;1099;2.27479526842584;-0.4499517;2.036231;-0.3284261;2.01803;0.6062179;1.15;0.6350791;1.180264;
637949459727469182;622.4678;18;2;2.5;0.3;1.4;799;3.12891113892365;0.2394144;0.8422153;0.2287303;0.9412143;-0.4499517;2.036231;-0.3284261;2.01803;
637949459742458974;623.9671;18;2;2;0.6;1.8;799;2.50312891113892;-0.3078177;0.6542765;-0.1755294;0.8348457;0;2.4;0.01496732;2.433618;
637949459749458778;624.6669;18;2;2;0.6;1.8;700;2.85714285714286;0.5785087;2.18944;0.5025719;2.233127;-0.3078177;0.6542765;-0.1755294;0.8348457;
637949459758447749;625.5663;18;2;2;0.6;1.8;899;2.22469410456062;-0.7794226;1.05;-0.8194239;1.10779;0.5785087;2.18944;0.5025719;2.233127;
637949459765447616;626.2664;18;2;2;0.6;1.8;700;2.85714285714286;0.8863269;1.656283;0.9081831;1.709297;-0.7794226;1.05;-0.8194239;1.10779;
637949459774442815;627.1658;18;2;2;0.6;1.8;899;2.22469410456062;-0.8863271;1.656283;-0.8087835;1.656807;0.8863269;1.656283;0.9081831;1.709297;
637949459789437888;628.665;18;2;2;0.6;1.8;1499;1.33422281521014;0.779423;1.05;0.9273751;1.176029;-0.8863271;1.656283;-0.8087835;1.656807;
637949459800539592;629.7758;18;2;2;0.6;1.8;1111;1.8001800180018;-0.5785094;2.18944;-0.5072864;2.122233;0.779423;1.05;0.9273751;1.176029;
637949459807530667;630.4753;18;2;2;0.6;1.8;700;2.85714285714286;0.3078185;0.6542768;0.3477426;0.8709557;-0.5785094;2.18944;-0.5072864;2.122233;
637949459833524647;633.074;18;2;4.5;0.1;2.2;1399;3.21658327376698;-0.3762217;0.4663379;-0.3703876;0.5157491;0;2.6;-0.004029987;2.562971;
637949459848516946;634.5734;18;2;4.5;0.1;2.2;1499;3.00200133422282;0.7070663;2.342649;0.7050646;2.336713;-0.3762217;0.4663379;-0.3703876;0.5157491;
637949459866509703;636.3726;18;2;4.5;0.1;2.2;1799;2.50138966092273;-0.9526277;0.9499994;-0.9319435;0.9895348;0.7070663;2.342649;0.7050646;2.336713;
637949459885492613;638.2717;18;2;4.5;0.1;2.2;1899;2.3696682464455;1.083289;1.691013;1.078649;1.701021;-0.9526277;0.9499994;-0.9319435;0.9895348;
637949459902485219;639.9711;18;2;4.5;0.1;2.2;1699;2.64861683343143;-1.083289;1.691012;-1.033645;1.687441;1.083289;1.691013;1.078649;1.701021;
637949459927469047;642.4699;18;2;4.5;0.1;2.2;2499;1.80072028811525;0.9526281;0.9500003;0.9272935;0.9897221;-1.083289;1.691012;-1.033645;1.687441;
637949459970555653;646.7789;18;2;4.5;0.1;2.2;4309;1.04432582965885;-0.7070671;2.342648;-0.695257;2.335533;0.9526281;0.9500003;0.9272935;0.9897221;
637949459985557953;648.2783;18;2;4.5;0.1;2.2;1499;3.00200133422282;0.3762226;0.4663382;0.3713271;0.494419;-0.7070671;2.342648;-0.695257;2.335533;
637949460593699924;709.096;18;3;4.5;0.1;2.2;1700;2.64705882352941;-0.3762217;0.4663379;-0.3751929;0.5018841;0;2.6;0.008526742;2.571115;
637949460605771782;710.3049;18;3;4.5;0.1;2.2;1209;3.72208436724566;0.7070663;2.342649;0.711727;2.357173;-0.3762217;0.4663379;-0.3751929;0.5018841;
637949460624764687;712.2042;18;3;4.5;0.1;2.2;1899;2.3696682464455;-0.9526277;0.9499994;-0.9111338;0.964069;0.7070663;2.342649;0.711727;2.357173;
637949460637756679;713.5036;18;3;4.5;0.1;2.2;1299;3.46420323325635;1.083289;1.691013;1.039553;1.7003;-0.9526277;0.9499994;-0.9111338;0.964069;
637949460658742536;715.6027;18;3;4.5;0.1;2.2;2099;2.14387803716055;-1.083289;1.691012;-1.056452;1.681368;1.083289;1.691013;1.039553;1.7003;
637949460674853982;717.2129;18;3;4.5;0.1;2.2;1610;2.79503105590062;0.9526281;0.9500003;0.9547943;0.9930109;-1.083289;1.691012;-1.056452;1.681368;
637949460698837659;719.6117;18;3;4.5;0.1;2.2;2399;1.87578157565652;-0.7070671;2.342648;-0.7027938;2.385452;0.9526281;0.9500003;0.9547943;0.9930109;
637949460722831339;722.011;18;3;4.5;0.1;2.2;2399;1.87578157565652;0.3762226;0.4663382;0.3393468;0.4957907;-0.7070671;2.342648;-0.7027938;2.385452;
637949460747815168;724.5103;18;3;3.5;0.2;2;1200;2.91666666666667;-0.3420197;0.5603072;-0.3198222;0.6373342;0;2.5;0.013346;2.449435;
637949460758806851;725.6091;18;3;3.5;0.2;2;1099;3.18471337579618;0.6427875;2.266045;0.6554946;2.268034;-0.3420197;0.5603072;-0.3198222;0.6373342;
637949460772798998;727.0083;18;3;3.5;0.2;2;1399;2.50178699070765;-0.8660251;0.9999995;-0.8047183;1.066998;0.6427875;2.266045;0.6554946;2.268034;
637949460783790683;728.1079;18;3;3.5;0.2;2;1100;3.18181818181818;0.9848077;1.673648;0.9210976;1.70325;-0.8660251;0.9999995;-0.8047183;1.066998;
637949460799783132;729.7072;18;3;3.5;0.2;2;1599;2.18886804252658;-0.9848078;1.673648;-0.9376683;1.697035;0.9848077;1.673648;0.9210976;1.70325;
637949460822766656;732.0059;18;3;3.5;0.2;2;2299;1.52240104393214;0.8660256;1;0.8467745;1.044829;-0.9848078;1.673648;-0.9376683;1.697035;
637949460836768808;733.4059;18;3;3.5;0.2;2;1400;2.5;-0.6427882;2.266044;-0.5930233;2.246714;0.8660256;1;0.8467745;1.044829;
637949460848870661;734.6158;18;3;3.5;0.2;2;1210;2.89256198347107;0.3420205;0.5603075;0.3381564;0.5884676;-0.6427882;2.266044;-0.5930233;2.246714;
637949460869863879;736.7151;18;3;3;0.2;1.4;999;3.003003003003;-0.2394138;0.8422151;-0.2520858;0.9364406;0;2.2;-0.02159515;2.215425;
637949460883846020;738.1141;18;3;3;0.2;1.4;1399;2.14438884917798;0.4499513;2.036231;0.4078861;1.99025;-0.2394138;0.8422151;-0.2520858;0.9364406;
637949460897838165;739.5137;18;3;3;0.2;1.4;1400;2.14285714285714;-0.6062176;1.15;-0.5377384;1.214197;0.4499513;2.036231;0.4078861;1.99025;
637949460911840313;740.9133;18;3;3;0.2;1.4;1400;2.14285714285714;0.6893654;1.621554;0.6544976;1.616835;-0.6062176;1.15;-0.5377384;1.214197;
637949460924902322;742.2128;18;3;3;0.2;1.4;1300;2.30769230769231;-0.6893655;1.621553;-0.5994887;1.614211;0.6893654;1.621554;0.6544976;1.616835;
637949460935823987;743.3119;18;3;3;0.2;1.4;1099;2.72975432211101;0.6062179;1.15;0.5642372;1.172464;-0.6893655;1.621553;-0.5994887;1.614211;
637949460947815824;744.5115;18;3;3;0.2;1.4;1200;2.5;-0.4499517;2.036231;-0.4717453;2.019585;0.6062179;1.15;0.5642372;1.172464;
637949460962811621;746.0108;18;3;3;0.2;1.4;1499;2.00133422281521;0.2394144;0.8422153;0.236536;0.9417046;-0.4499517;2.036231;-0.4717453;2.019585;
637949460979804226;747.71;18;3;2;0.6;1.8;800;2.5;-0.3078177;0.6542765;-0.2936368;0.8999872;0;2.4;-0.00612155;2.295193;
637949460987795452;748.5098;18;3;2;0.6;1.8;800;2.5;0.5785087;2.18944;0.5948444;2.25506;-0.3078177;0.6542765;-0.2936368;0.8999872;
637949461007898173;750.5197;18;3;2;0.6;1.8;2010;0.995024875621891;-0.7794226;1.05;-0.6709367;1.207174;0.5785087;2.18944;0.5948444;2.25506;
637949461017895052;751.5194;18;3;2;0.6;1.8;1000;2;0.8863269;1.656283;0.7729311;1.626151;-0.7794226;1.05;-0.6709367;1.207174;
637949461032877039;753.0185;18;3;2;0.6;1.8;1499;1.33422281521014;-0.8863271;1.656283;-0.6721134;1.723696;0.8863269;1.656283;0.7729311;1.626151;
637949461043879799;754.118;18;3;2;0.6;1.8;1100;1.81818181818182;0.779423;1.05;0.7043244;1.223467;-0.8863271;1.656283;-0.6721134;1.723696;
637949461052872950;755.0177;18;3;2;0.6;1.8;900;2.22222222222222;-0.5785094;2.18944;-0.7207591;2.318552;0.779423;1.05;0.7043244;1.223467;
637949461073856168;757.1168;18;3;2;0.6;1.8;2099;0.952834683182468;0.3078185;0.6542768;0.2424707;0.8568107;-0.5785094;2.18944;-0.7207591;2.318552;
637949461087958333;758.5273;18;3;1.5;1.1;2;700;2.14285714285714;-0.3420197;0.5603072;-0.2636153;0.8451339;0;2.5;-0.03463764;2.354288;
637949461093959250;759.1271;18;3;1.5;1.1;2;600;2.5;0.6427875;2.266045;0.5646279;2.042879;-0.3420197;0.5603072;-0.2636153;0.8451339;
637949461099960169;759.7269;18;3;1.5;1.1;2;600;2.5;-0.8660251;0.9999995;-0.8084909;1.142941;0.6427875;2.266045;0.5646279;2.042879;
637949461106951244;760.4263;18;3;1.5;1.1;2;699;2.14592274678112;0.9848077;1.673648;0.8984986;1.652413;-0.8660251;0.9999995;-0.8084909;1.142941;
637949461114942469;761.2258;18;3;1.5;1.1;2;799;1.87734668335419;-0.9848078;1.673648;-0.8912866;1.889133;0.9848077;1.673648;0.8984986;1.652413;
637949461121943538;761.9255;18;3;1.5;1.1;2;700;2.14285714285714;0.8660256;1;0.7313779;1.123741;-0.9848078;1.673648;-0.8912866;1.889133;
637949461128944612;762.6252;18;3;1.5;1.1;2;700;2.14285714285714;-0.6427882;2.266044;-0.493718;2.310568;0.8660256;1;0.7313779;1.123741;
637949461136935839;763.4251;18;3;1.5;1.1;2;800;1.875;0.3420205;0.5603075;0.3518796;0.9010744;-0.6427882;2.266044;-0.493718;2.310568;
637949461151928133;764.9241;18;3;2.5;0.3;1.4;700;3.57142857142857;-0.2394138;0.8422151;-0.2103349;0.9245915;0;2.2;0.02064017;2.123631;
637949461159919355;765.7238;18;3;2.5;0.3;1.4;800;3.125;0.4499513;2.036231;0.3801802;1.98661;-0.2394138;0.8422151;-0.2103349;0.9245915;
637949461166920432;766.4237;18;3;2.5;0.3;1.4;700;3.57142857142857;-0.6062176;1.15;-0.5891659;1.204358;0.4499513;2.036231;0.3801802;1.98661;
637949461175911811;767.3229;18;3;2.5;0.3;1.4;899;2.78086763070078;0.6893654;1.621554;0.7157449;1.723346;-0.6062176;1.15;-0.5891659;1.204358;
637949461186913498;768.4226;18;3;2.5;0.3;1.4;1100;2.27272727272727;-0.6893655;1.621553;-0.6354046;1.639773;0.6893654;1.621554;0.7157449;1.723346;
637949461193904570;769.1222;18;3;2.5;0.3;1.4;700;3.57142857142857;0.6062179;1.15;0.6469185;1.189877;-0.6893655;1.621553;-0.6354046;1.639773;
637949461213897639;771.1212;18;3;2.5;0.3;1.4;1999;1.25062531265633;-0.4499517;2.036231;-0.4337666;2.047242;0.6062179;1.15;0.6469185;1.189877;
637949461223889167;772.1209;18;3;2.5;0.3;1.4;1000;2.5;0.2394144;0.8422153;0.2985016;0.9405442;-0.4499517;2.036231;-0.4337666;2.047242;
637949461261985010;775.9302;18;3;4;0.1;1.4;1699;2.35432607416127;-0.2394138;0.8422151;-0.2422221;0.8694308;0;2.2;-0.01885579;2.216821;
637949461278967615;777.6294;18;3;4;0.1;1.4;1699;2.35432607416127;0.4499513;2.036231;0.429812;2.006846;-0.2394138;0.8422151;-0.2422221;0.8694308;
637949461298960675;779.6285;18;3;4;0.1;1.4;1999;2.00100050025012;-0.6062176;1.15;-0.5849903;1.163252;0.4499513;2.036231;0.429812;2.006846;
637949461317953589;781.5277;18;3;4;0.1;1.4;1899;2.10637177461822;0.6893654;1.621554;0.6667768;1.636947;-0.6062176;1.15;-0.5849903;1.163252;
637949461332945886;783.0269;18;3;4;0.1;1.4;1499;2.66844563042028;-0.6893655;1.621553;-0.6641942;1.631173;0.6893654;1.621554;0.6667768;1.636947;
637949461344937723;784.2261;18;3;4;0.1;1.4;1199;3.33611342785655;0.6062179;1.15;0.6002445;1.178968;-0.6893655;1.621553;-0.6641942;1.631173;
637949461362920446;786.0255;18;3;4;0.1;1.4;1799;2.22345747637576;-0.4499517;2.036231;-0.4201881;2.025647;0.6062179;1.15;0.6002445;1.178968;
637949461380920396;787.825;18;3;4;0.1;1.4;1800;2.22222222222222;0.2394144;0.8422153;0.2209517;0.8492073;-0.4499517;2.036231;-0.4201881;2.025647;
637949462537300502;903.4708;18;4;2.5;0.3;1.4;799;3.12891113892365;-0.2394138;0.8422151;-0.2149823;0.9455173;0;2.2;0.01506154;2.173302;
637949462546291883;904.3708;18;4;2.5;0.3;1.4;900;2.77777777777778;0.4499513;2.036231;0.4222014;1.996108;-0.2394138;0.8422151;-0.2149823;0.9455173;
637949462557283566;905.47;18;4;2.5;0.3;1.4;1099;2.27479526842584;-0.6062176;1.15;-0.5444193;1.175167;0.4499513;2.036231;0.4222014;1.996108;
637949462566278759;906.3695;18;4;2.5;0.3;1.4;899;2.78086763070078;0.6893654;1.621554;0.7276307;1.673456;-0.6062176;1.15;-0.5444193;1.175167;
637949462576276864;907.3691;18;4;2.5;0.3;1.4;1000;2.5;-0.6893655;1.621553;-0.6328521;1.62771;0.6893654;1.621554;0.7276307;1.673456;
637949462593379486;909.0797;18;4;2.5;0.3;1.4;1711;1.46113383985973;0.6062179;1.15;0.6162109;1.239682;-0.6893655;1.621553;-0.6328521;1.62771;
637949462605371325;910.2791;18;4;2.5;0.3;1.4;1199;2.08507089241034;-0.4499517;2.036231;-0.3765878;2.036608;0.6062179;1.15;0.6162109;1.239682;
637949462617363163;911.4782;18;4;2.5;0.3;1.4;1199;2.08507089241034;0.2394144;0.8422153;0.3138299;0.9382142;-0.4499517;2.036231;-0.3765878;2.036608;
637949462632356773;912.9778;18;4;1.5;1.1;2;700;2.14285714285714;-0.3420197;0.5603072;-0.2698149;0.8856449;0;2.5;0.01971007;2.254186;
637949462639350351;913.6772;18;4;1.5;1.1;2;699;2.14592274678112;0.6427875;2.266045;0.482924;2.226737;-0.3420197;0.5603072;-0.2698149;0.8856449;
637949462646353241;914.3771;18;4;1.5;1.1;2;700;2.14285714285714;-0.8660251;0.9999995;-0.6860962;1.23861;0.6427875;2.266045;0.482924;2.226737;
637949462652344156;914.9768;18;4;1.5;1.1;2;600;2.5;0.9848077;1.673648;0.8404163;1.680718;-0.8660251;0.9999995;-0.6860962;1.23861;
637949462659345229;915.6765;18;4;1.5;1.1;2;700;2.14285714285714;-0.9848078;1.673648;-0.852662;1.863434;0.9848077;1.673648;0.8404163;1.680718;
637949462666336301;916.3761;18;4;1.5;1.1;2;700;2.14285714285714;0.8660256;1;0.6034529;1.161207;-0.9848078;1.673648;-0.852662;1.863434;
637949462673337374;917.0758;18;4;1.5;1.1;2;700;2.14285714285714;-0.6427882;2.266044;-0.5874244;2.211211;0.8660256;1;0.6034529;1.161207;
637949462680328446;917.7753;18;4;1.5;1.1;2;699;2.14592274678112;0.3420205;0.5603075;0.3147676;0.9328687;-0.6427882;2.266044;-0.5874244;2.211211;
637949462711323199;920.8745;18;4;4;0.1;1.4;1100;3.63636363636364;-0.2394138;0.8422151;-0.2263127;0.8629191;0;2.2;-0.01746723;2.195621;
637949462724305188;922.1734;18;4;4;0.1;1.4;1299;3.07929176289453;0.4499513;2.036231;0.438771;2.031158;-0.2394138;0.8422151;-0.2263127;0.8629191;
637949462744298251;924.1727;18;4;4;0.1;1.4;1999;2.00100050025012;-0.6062176;1.15;-0.5990069;1.171349;0.4499513;2.036231;0.438771;2.031158;
637949462762401026;925.9828;18;4;4;0.1;1.4;1810;2.20994475138122;0.6893654;1.621554;0.6716667;1.664308;-0.6062176;1.15;-0.5990069;1.171349;
637949462776393174;927.3826;18;4;4;0.1;1.4;1400;2.85714285714286;-0.6893655;1.621553;-0.6850701;1.668653;0.6893654;1.621554;0.6716667;1.664308;
637949462804377462;930.1808;18;4;4;0.1;1.4;2798;1.42959256611866;0.6062179;1.15;0.6173367;1.166513;-0.6893655;1.621553;-0.6850701;1.668653;
637949462819369761;931.6801;18;4;4;0.1;1.4;1499;2.66844563042028;-0.4499517;2.036231;-0.4249902;2.058857;0.6062179;1.15;0.6173367;1.166513;
637949462844353590;934.1789;18;4;4;0.1;1.4;2499;1.60064025610244;0.2394144;0.8422153;0.2570512;0.8759651;-0.4499517;2.036231;-0.4249902;2.058857;
637949462861346193;935.8782;18;4;2;0.6;1.8;800;2.5;-0.3078177;0.6542765;-0.1681288;0.9032315;0;2.4;0.02752721;2.355589;
637949462869337424;936.6776;18;4;2;0.6;1.8;799;2.50312891113892;0.5785087;2.18944;0.4440996;2.124535;-0.3078177;0.6542765;-0.1681288;0.9032315;
637949462878338797;937.5774;18;4;2;0.6;1.8;900;2.22222222222222;-0.7794226;1.05;-0.5887371;1.188737;0.5785087;2.18944;0.4440996;2.124535;
637949462895321399;939.2765;18;4;2;0.6;1.8;1699;1.17716303708064;0.8863269;1.656283;0.7743839;1.671535;-0.7794226;1.05;-0.5887371;1.188737;
637949462904322783;940.1763;18;4;2;0.6;1.8;900;2.22222222222222;-0.8863271;1.656283;-0.7399455;1.74947;0.8863269;1.656283;0.7743839;1.671535;
637949462913429214;941.0868;18;4;2;0.6;1.8;911;2.1953896816685;0.779423;1.05;0.5983588;1.16055;-0.8863271;1.656283;-0.7399455;1.74947;
637949462922421075;941.9865;18;4;2;0.6;1.8;900;2.22222222222222;-0.5785094;2.18944;-0.5085782;2.108845;0.779423;1.05;0.5983588;1.16055;
637949462932420320;942.9859;18;4;2;0.6;1.8;999;2.002002002002;0.3078185;0.6542768;0.2878718;0.899601;-0.5785094;2.18944;-0.5085782;2.108845;
637949462962404919;945.9847;18;4;4.5;0.1;2.2;1399;3.21658327376698;-0.3762217;0.4663379;-0.3594802;0.50569;0;2.6;0.01322727;2.629762;
637949462975389508;947.2839;18;4;4.5;0.1;2.2;1299;3.46420323325635;0.7070663;2.342649;0.67243;2.327517;-0.3762217;0.4663379;-0.3594802;0.50569;
637949462997377150;949.4828;18;4;4.5;0.1;2.2;2199;2.04638472032742;-0.9526277;0.9499994;-0.9453238;0.9634524;0.7070663;2.342649;0.67243;2.327517;
637949463014369755;951.1823;18;4;4.5;0.1;2.2;1699;2.64861683343143;1.083289;1.691013;1.045261;1.694886;-0.9526277;0.9499994;-0.9453238;0.9634524;
637949463026361592;952.3815;18;4;4.5;0.1;2.2;1199;3.75312760633862;-1.083289;1.691012;-1.048254;1.708882;1.083289;1.691013;1.045261;1.694886;
637949463044474367;954.192;18;4;4.5;0.1;2.2;1810;2.48618784530387;0.9526281;0.9500003;0.9341862;0.9761264;-1.083289;1.691012;-1.048254;1.708882;
637949463059466669;955.6913;18;4;4.5;0.1;2.2;1499;3.00200133422282;-0.7070671;2.342648;-0.6856763;2.353154;0.9526281;0.9500003;0.9341862;0.9761264;
637949463079449729;957.6902;18;4;4.5;0.1;2.2;1999;2.25112556278139;0.3762226;0.4663382;0.3813538;0.5143185;-0.7070671;2.342648;-0.6856763;2.353154;
637949463099442794;959.6894;18;4;3.5;0.2;2;1100;3.18181818181818;-0.3420197;0.5603072;-0.3186364;0.6336982;0;2.5;0.02759795;2.469878;
637949463109434324;960.6888;18;4;3.5;0.2;2;999;3.5035035035035;0.6427875;2.266045;0.6666319;2.258227;-0.3420197;0.5603072;-0.3186364;0.6336982;
637949463119425860;961.6884;18;4;3.5;0.2;2;1000;3.5;-0.8660251;0.9999995;-0.8510993;1.042407;0.6427875;2.266045;0.6666319;2.258227;
637949463140419076;963.7872;18;4;3.5;0.2;2;2099;1.66746069556932;0.9848077;1.673648;0.9305517;1.687269;-0.8660251;0.9999995;-0.8510993;1.042407;
637949463154411226;965.1867;18;4;3.5;0.2;2;1399;2.50178699070765;-0.9848078;1.673648;-0.9338832;1.664334;0.9848077;1.673648;0.9305517;1.687269;
637949463165412913;966.2863;18;4;3.5;0.2;2;1100;3.18181818181818;0.8660256;1;0.8251368;1.076357;-0.9848078;1.673648;-0.9338832;1.664334;
637949463188396430;968.5854;18;4;3.5;0.2;2;2299;1.52240104393214;-0.6427882;2.266044;-0.6208215;2.255236;0.8660256;1;0.8251368;1.076357;
637949463214380409;971.1846;18;4;3.5;0.2;2;2599;1.34667179684494;0.3420205;0.5603075;0.3420147;0.6346816;-0.6427882;2.266044;-0.6208215;2.255236;
637949463237473954;973.494;18;4;3;0.2;1.4;1000;3;-0.2394138;0.8422151;-0.224693;0.8909868;0;2.2;-0.007586527;2.21985;
637949463251466098;974.8934;18;4;3;0.2;1.4;1399;2.14438884917798;0.4499513;2.036231;0.4335126;2.037168;-0.2394138;0.8422151;-0.224693;0.8909868;
637949463267454898;976.4926;18;4;3;0.2;1.4;1599;1.87617260787993;-0.6062176;1.15;-0.5477062;1.201888;0.4499513;2.036231;0.4335126;2.037168;
637949463279456738;977.692;18;4;3;0.2;1.4;1199;2.50208507089241;0.6893654;1.621554;0.6569133;1.64771;-0.6062176;1.15;-0.5477062;1.201888;
637949463289448267;978.6919;18;4;3;0.2;1.4;1000;3;-0.6893655;1.621553;-0.6971516;1.653865;0.6893654;1.621554;0.6569133;1.64771;
637949463299442788;979.691;18;4;3;0.2;1.4;999;3.003003003003;0.6062179;1.15;0.6074715;1.168665;-0.6893655;1.621553;-0.6971516;1.653865;
637949463309437542;980.6908;18;4;3;0.2;1.4;1000;3;-0.4499517;2.036231;-0.4205379;2.018214;0.6062179;1.15;0.6074715;1.168665;
637949463323429685;982.0901;18;4;3;0.2;1.4;1399;2.14438884917798;0.2394144;0.8422153;0.2183839;0.9370126;-0.4499517;2.036231;-0.4205379;2.018214;
637949463891583089;1038.908;18;5;4;0.1;1.4;1299;3.07929176289453;-0.2394138;0.8422151;-0.2119444;0.8764913;0;2.2;0.01525299;2.224858;
637949463918567225;1041.607;18;5;4;0.1;1.4;2699;1.48203038162282;0.4499513;2.036231;0.4380662;2.044759;-0.2394138;0.8422151;-0.2119444;0.8764913;
637949463930569063;1042.807;18;5;4;0.1;1.4;1200;3.33333333333333;-0.6062176;1.15;-0.5691774;1.178266;0.4499513;2.036231;0.4380662;2.044759;
637949463942555945;1044.006;18;5;4;0.1;1.4;1199;3.33611342785655;0.6893654;1.621554;0.684308;1.641847;-0.6062176;1.15;-0.5691774;1.178266;
637949463964546474;1046.205;18;5;4;0.1;1.4;2199;1.81900864029104;-0.6893655;1.621553;-0.6932157;1.627409;0.6893654;1.621554;0.684308;1.641847;
637949463975648169;1047.315;18;5;4;0.1;1.4;1110;3.6036036036036;0.6062179;1.15;0.5917781;1.173389;-0.6893655;1.621553;-0.6932157;1.627409;
637949463988642348;1048.615;18;5;4;0.1;1.4;1299;3.07929176289453;-0.4499517;2.036231;-0.4296773;2.038447;0.6062179;1.15;0.5917781;1.173389;
637949464005632869;1050.314;18;5;4;0.1;1.4;1699;2.35432607416127;0.2394144;0.8422153;0.2239367;0.8811413;-0.4499517;2.036231;-0.4296773;2.038447;
637949464027625118;1052.513;18;5;3;0.2;1.4;900;3.33333333333333;-0.2394138;0.8422151;-0.2186932;0.9166733;0;2.2;0.0152617;2.18996;
637949464036624888;1053.413;18;5;3;0.2;1.4;900;3.33333333333333;0.4499513;2.036231;0.4495661;2.023994;-0.2394138;0.8422151;-0.2186932;0.9166733;
637949464047620400;1054.512;18;5;3;0.2;1.4;1099;2.72975432211101;-0.6062176;1.15;-0.5660211;1.183926;0.4499513;2.036231;0.4495661;2.023994;
637949464058602088;1055.611;18;5;3;0.2;1.4;1099;2.72975432211101;0.6893654;1.621554;0.6123574;1.62284;-0.6062176;1.15;-0.5660211;1.183926;
637949464070603926;1056.811;18;5;3;0.2;1.4;1200;2.5;-0.6893655;1.621553;-0.6359321;1.632275;0.6893654;1.621554;0.6123574;1.62284;
637949464083595916;1058.11;18;5;3;0.2;1.4;1299;2.3094688221709;0.6062179;1.15;0.6000943;1.200003;-0.6893655;1.621553;-0.6359321;1.632275;
637949464096587910;1059.41;18;5;3;0.2;1.4;1300;2.30769230769231;-0.4499517;2.036231;-0.4350899;2.046818;0.6062179;1.15;0.6000943;1.200003;
637949464106579443;1060.41;18;5;3;0.2;1.4;1000;3;0.2394144;0.8422153;0.214166;0.9029082;-0.4499517;2.036231;-0.4350899;2.046818;
637949464129672983;1062.719;18;5;3.5;0.2;2;1299;2.69438029253272;-0.3420197;0.5603072;-0.3152745;0.6442828;0;2.5;-0.002976022;2.492395;
637949464142674977;1064.019;18;5;3.5;0.2;2;1300;2.69230769230769;0.6427875;2.266045;0.602329;2.203732;-0.3420197;0.5603072;-0.3152745;0.6442828;
637949464164658345;1066.218;18;5;3.5;0.2;2;2199;1.59163256025466;-0.8660251;0.9999995;-0.851388;1.081738;0.6427875;2.266045;0.602329;2.203732;
637949464176650184;1067.417;18;5;3.5;0.2;2;1199;2.91909924937448;0.9848077;1.673648;0.9338141;1.706701;-0.8660251;0.9999995;-0.851388;1.081738;
637949464188642020;1068.617;18;5;3.5;0.2;2;1200;2.91666666666667;-0.9848078;1.673648;-0.9216655;1.726539;0.9848077;1.673648;0.9338141;1.706701;
637949464200643862;1069.816;18;5;3.5;0.2;2;1199;2.91909924937448;0.8660256;1;0.8114722;1.031411;-0.9848078;1.673648;-0.9216655;1.726539;
637949464212635696;1071.016;18;5;3.5;0.2;2;1200;2.91666666666667;-0.6427882;2.266044;-0.6160409;2.272107;0.8660256;1;0.8114722;1.031411;
637949464231628614;1072.914;18;5;3.5;0.2;2;1899;1.84307530279094;0.3420205;0.5603075;0.3559218;0.6529714;-0.6427882;2.266044;-0.6160409;2.272107;
637949464257612594;1075.513;18;5;2.5;0.3;1.4;1499;1.66777851901268;-0.2394138;0.8422151;-0.1950385;0.9513032;0;2.2;-0.005072722;2.178639;
637949464267604127;1076.513;18;5;2.5;0.3;1.4;1000;2.5;0.4499513;2.036231;0.4653403;2.057771;-0.2394138;0.8422151;-0.1950385;0.9513032;
637949464280706136;1077.823;18;5;2.5;0.3;1.4;1311;1.906941266209;-0.6062176;1.15;-0.5570284;1.181731;0.4499513;2.036231;0.4653403;2.057771;
637949464291707821;1078.923;18;5;2.5;0.3;1.4;1100;2.27272727272727;0.6893654;1.621554;0.6617948;1.617803;-0.6062176;1.15;-0.5570284;1.181731;
637949464302699508;1080.023;18;5;2.5;0.3;1.4;1099;2.27479526842584;-0.6893655;1.621553;-0.7782396;1.634669;0.6893654;1.621554;0.6617948;1.617803;
637949464312689247;1081.022;18;5;2.5;0.3;1.4;999;2.5025025025025;0.6062179;1.15;0.5530443;1.179606;-0.6893655;1.621553;-0.7782396;1.634669;
637949464322686508;1082.021;18;5;2.5;0.3;1.4;1000;2.5;-0.4499517;2.036231;-0.392773;2.079097;0.6062179;1.15;0.5530443;1.179606;
637949464332688035;1083.021;18;5;2.5;0.3;1.4;1000;2.5;0.2394144;0.8422153;0.2790192;0.9677843;-0.4499517;2.036231;-0.392773;2.079097;
637949464362665675;1086.02;18;5;4.5;0.1;2.2;1399;3.21658327376698;-0.3762217;0.4663379;-0.3886958;0.4825206;0;2.6;0.001711871;2.586716;
637949464375653422;1087.319;18;5;4.5;0.1;2.2;1299;3.46420323325635;0.7070663;2.342649;0.6913001;2.340958;-0.3762217;0.4663379;-0.3886958;0.4825206;
637949464399646292;1089.718;18;5;4.5;0.1;2.2;2399;1.87578157565652;-0.9526277;0.9499994;-0.9396068;0.9625708;0.7070663;2.342649;0.6913001;2.340958;
637949464413748456;1091.128;18;5;4.5;0.1;2.2;1410;3.19148936170213;1.083289;1.691013;1.093796;1.685999;-0.9526277;0.9499994;-0.9396068;0.9625708;
637949464428740754;1092.628;18;5;4.5;0.1;2.2;1499;3.00200133422282;-1.083289;1.691012;-1.063648;1.667826;1.083289;1.691013;1.093796;1.685999;
637949464450724123;1094.827;18;5;4.5;0.1;2.2;2199;2.04638472032742;0.9526281;0.9500003;0.9547087;0.9846362;-1.083289;1.691012;-1.063648;1.667826;
637949464468726879;1096.626;18;5;4.5;0.1;2.2;1800;2.5;-0.7070671;2.342648;-0.6682149;2.312944;0.9526281;0.9500003;0.9547087;0.9846362;
637949464485709486;1098.325;18;5;4.5;0.1;2.2;1699;2.64861683343143;0.3762226;0.4663382;0.3860809;0.5148648;-0.7070671;2.342648;-0.6682149;2.312944;
637949464500701782;1099.824;18;5;1.5;1.1;2;700;2.14285714285714;-0.3420197;0.5603072;-0.278078;0.9133686;0;2.5;0.007656232;2.320501;
637949464507702862;1100.524;18;5;1.5;1.1;2;700;2.14285714285714;0.6427875;2.266045;0.4633301;2.217754;-0.3420197;0.5603072;-0.278078;0.9133686;
637949464514693928;1101.224;18;5;1.5;1.1;2;699;2.14592274678112;-0.8660251;0.9999995;-0.7160231;1.294286;0.6427875;2.266045;0.4633301;2.217754;
637949464521695002;1101.924;18;5;1.5;1.1;2;700;2.14285714285714;0.9848077;1.673648;0.7401488;1.720459;-0.8660251;0.9999995;-0.7160231;1.294286;
637949464527685924;1102.523;18;5;1.5;1.1;2;599;2.50417362270451;-0.9848078;1.673648;-0.7009133;1.823216;0.9848077;1.673648;0.7401488;1.720459;
637949464534686994;1103.223;18;5;1.5;1.1;2;699;2.14592274678112;0.8660256;1;0.6662324;1.283097;-0.9848078;1.673648;-0.7009133;1.823216;
637949464542678223;1104.022;18;5;1.5;1.1;2;800;1.875;-0.6427882;2.266044;-0.475619;2.140027;0.8660256;1;0.6662324;1.283097;
637949464550759459;1104.822;18;5;1.5;1.1;2;800;1.875;0.3420205;0.5603075;0.2321236;1.030811;-0.6427882;2.266044;-0.475619;2.140027;
637949464565781760;1106.332;18;5;2;0.6;1.8;711;2.81293952180028;-0.3078177;0.6542765;-0.2303277;0.8597574;0;2.4;0.09952993;2.435215;
637949464572772832;1107.032;18;5;2;0.6;1.8;700;2.85714285714286;0.5785087;2.18944;0.5492951;2.250252;-0.3078177;0.6542765;-0.2303277;0.8597574;
637949464580774053;1107.832;18;5;2;0.6;1.8;799;2.50312891113892;-0.7794226;1.05;-0.5789404;1.206615;0.5785087;2.18944;0.5492951;2.250252;
637949464587765129;1108.531;18;5;2;0.6;1.8;700;2.85714285714286;0.8863269;1.656283;0.8715358;1.694511;-0.7794226;1.05;-0.5789404;1.206615;
637949464596766510;1109.431;18;5;2;0.6;1.8;900;2.22222222222222;-0.8863271;1.656283;-0.7574062;1.741082;0.8863269;1.656283;0.8715358;1.694511;
637949464603757581;1110.131;18;5;2;0.6;1.8;699;2.86123032904149;0.779423;1.05;0.7583721;1.098087;-0.8863271;1.656283;-0.7574062;1.741082;
637949464611748803;1110.93;18;5;2;0.6;1.8;799;2.50312891113892;-0.5785094;2.18944;-0.5521666;2.171307;0.779423;1.05;0.7583721;1.098087;
637949464619750032;1111.73;18;5;2;0.6;1.8;800;2.5;0.3078185;0.6542768;0.2577617;0.8877674;-0.5785094;2.18944;-0.5521666;2.171307;
637949465087924553;1158.552;18;6;1.5;1.1;2;600;2.5;-0.3420197;0.5603072;-0.2383211;0.7875594;0;2.5;0.06187865;2.417918;
637949465093925475;1159.152;18;6;1.5;1.1;2;600;2.5;0.6427875;2.266045;0.587605;2.263374;-0.3420197;0.5603072;-0.2383211;0.7875594;
637949465101036561;1159.863;18;6;1.5;1.1;2;711;2.10970464135021;-0.8660251;0.9999995;-0.4904105;1.297033;0.6427875;2.266045;0.587605;2.263374;
637949465107027475;1160.463;18;6;1.5;1.1;2;600;2.5;0.9848077;1.673648;0.7575318;1.715727;-0.8660251;0.9999995;-0.4904105;1.297033;
637949465113022193;1161.062;18;6;1.5;1.1;2;599;2.50417362270451;-0.9848078;1.673648;-0.8149216;1.801047;0.9848077;1.673648;0.7575318;1.715727;
637949465119021883;1161.662;18;6;1.5;1.1;2;600;2.5;0.8660256;1;0.7276834;1.293552;-0.9848078;1.673648;-0.8149216;1.801047;
637949465126022955;1162.362;18;6;1.5;1.1;2;699;2.14592274678112;-0.6427882;2.266044;-0.4512909;2.217967;0.8660256;1;0.7276834;1.293552;
637949465141015250;1163.862;18;6;1.5;1.1;2;1500;1;0.3420205;0.5603075;0.3811974;0.9423287;-0.6427882;2.266044;-0.4512909;2.217967;
637949465166999236;1166.46;18;6;2.5;0.3;1.4;700;3.57142857142857;-0.2394138;0.8422151;-0.1445664;0.9076489;0;2.2;0.049189;2.144662;
637949465174990461;1167.26;18;6;2.5;0.3;1.4;799;3.12891113892365;0.4499513;2.036231;0.5595655;2.034318;-0.2394138;0.8422151;-0.1445664;0.9076489;
637949465183981840;1168.159;18;6;2.5;0.3;1.4;899;2.78086763070078;-0.6062176;1.15;-0.5397665;1.191105;0.4499513;2.036231;0.5595655;2.034318;
637949465191983065;1168.959;18;6;2.5;0.3;1.4;800;3.125;0.6893654;1.621554;0.7161458;1.682323;-0.6062176;1.15;-0.5397665;1.191105;
637949465204985061;1170.258;18;6;2.5;0.3;1.4;1300;1.92307692307692;-0.6893655;1.621553;-0.6555298;1.652654;0.6893654;1.621554;0.7161458;1.682323;
637949465213976437;1171.158;18;6;2.5;0.3;1.4;899;2.78086763070078;0.6062179;1.15;0.6733673;1.22735;-0.6893655;1.621553;-0.6555298;1.652654;
637949465231959194;1172.957;18;6;2.5;0.3;1.4;1799;1.38966092273485;-0.4499517;2.036231;-0.3760867;2.07341;0.6062179;1.15;0.6733673;1.22735;
637949465240960576;1173.856;18;6;2.5;0.3;1.4;899;2.78086763070078;0.2394144;0.8422153;0.2818014;0.9354565;-0.4499517;2.036231;-0.3760867;2.07341;
637949465261053655;1175.867;18;6;3;0.2;1.4;1111;2.7002700270027;-0.2394138;0.8422151;-0.2247903;0.9107014;0;2.2;-0.0187293;2.21897;
637949465272055341;1176.966;18;6;3;0.2;1.4;1100;2.72727272727273;0.4499513;2.036231;0.4287032;2.02682;-0.2394138;0.8422151;-0.2247903;0.9107014;
637949465283047026;1178.066;18;6;3;0.2;1.4;1099;2.72975432211101;-0.6062176;1.15;-0.5738377;1.197634;0.4499513;2.036231;0.4287032;2.02682;
637949465293038558;1179.065;18;6;3;0.2;1.4;999;3.003003003003;0.6893654;1.621554;0.6264172;1.634042;-0.6062176;1.15;-0.5738377;1.197634;
637949465305030400;1180.265;18;6;3;0.2;1.4;1199;2.50208507089241;-0.6893655;1.621553;-0.6263179;1.605683;0.6893654;1.621554;0.6264172;1.634042;
637949465327023765;1182.464;18;6;3;0.2;1.4;2199;1.36425648021828;0.6062179;1.15;0.5908878;1.190211;-0.6893655;1.621553;-0.6263179;1.605683;
637949465340015759;1183.763;18;6;3;0.2;1.4;1299;2.3094688221709;-0.4499517;2.036231;-0.3949669;2.007758;0.6062179;1.15;0.5908878;1.190211;
637949465351007444;1184.862;18;6;3;0.2;1.4;1099;2.72975432211101;0.2394144;0.8422153;0.2438937;0.9253392;-0.4499517;2.036231;-0.3949669;2.007758;
637949465379001737;1187.662;18;6;4;0.1;1.4;1400;2.85714285714286;-0.2394138;0.8422151;-0.2505226;0.868066;0;2.2;-0.0161832;2.193681;
637949465389993421;1188.761;18;6;4;0.1;1.4;1099;3.63967242948135;0.4499513;2.036231;0.4272327;2.00245;-0.2394138;0.8422151;-0.2505226;0.868066;
637949465401095122;1189.871;18;6;4;0.1;1.4;1111;3.6003600360036;-0.6062176;1.15;-0.5967473;1.186939;0.4499513;2.036231;0.4272327;2.00245;
637949465425078798;1192.27;18;6;4;0.1;1.4;2399;1.66736140058358;0.6893654;1.621554;0.6641892;1.644474;-0.6062176;1.15;-0.5967473;1.186939;
637949465436078529;1193.37;18;6;4;0.1;1.4;1100;3.63636363636364;-0.6893655;1.621553;-0.6597099;1.641212;0.6893654;1.621554;0.6641892;1.644474;
637949465459066958;1195.669;18;6;4;0.1;1.4;2299;1.73988690735102;0.6062179;1.15;0.6056131;1.199786;-0.6893655;1.621553;-0.6597099;1.641212;
637949465472056806;1196.968;18;6;4;0.1;1.4;1299;3.07929176289453;-0.4499517;2.036231;-0.411406;2.012126;0.6062179;1.15;0.6056131;1.199786;
637949465484048645;1198.167;18;6;4;0.1;1.4;1199;3.33611342785655;0.2394144;0.8422153;0.2366046;0.8900416;-0.4499517;2.036231;-0.411406;2.012126;
637949465549123247;1204.676;18;6;4.5;0.1;2.2;5309;0.847617253720098;-0.3762217;0.4663379;-0.3474899;0.4874092;0;2.6;-0.004212534;2.596616;
637949465567126009;1206.475;18;6;4.5;0.1;2.2;1800;2.5;0.7070663;2.342649;0.6911896;2.309331;-0.3762217;0.4663379;-0.3474899;0.4874092;
637949465590109536;1208.774;18;6;4.5;0.1;2.2;2299;1.9573727707699;-0.9526277;0.9499994;-0.9268902;0.9577869;0.7070663;2.342649;0.6911896;2.309331;
637949465604091664;1210.173;18;6;4.5;0.1;2.2;1399;3.21658327376698;1.083289;1.691013;1.059564;1.705963;-0.9526277;0.9499994;-0.9268902;0.9577869;
637949465626085044;1212.372;18;6;4.5;0.1;2.2;2199;2.04638472032742;-1.083289;1.691012;-1.036945;1.679721;1.083289;1.691013;1.059564;1.705963;
637949465641077344;1213.871;18;6;4.5;0.1;2.2;1499;3.00200133422282;0.9526281;0.9500003;0.9312881;0.9910696;-1.083289;1.691012;-1.036945;1.679721;
637949465658069947;1215.57;18;6;4.5;0.1;2.2;1699;2.64861683343143;-0.7070671;2.342648;-0.6619129;2.33551;0.9526281;0.9500003;0.9312881;0.9910696;
637949465690044851;1218.769;18;6;4.5;0.1;2.2;3198;1.40712945590994;0.3762226;0.4663382;0.3735966;0.4986798;-0.7070671;2.342648;-0.6619129;2.33551;
637949465734141609;1223.178;18;6;3.5;0.2;2;2199;1.59163256025466;-0.3420197;0.5603072;-0.3533343;0.6247276;0;2.5;0.02175665;2.469077;
637949465746133446;1224.377;18;6;3.5;0.2;2;1199;2.91909924937448;0.6427875;2.266045;0.6157349;2.193152;-0.3420197;0.5603072;-0.3533343;0.6247276;
637949465760125592;1225.777;18;6;3.5;0.2;2;1399;2.50178699070765;-0.8660251;0.9999995;-0.7804843;1.031252;0.6427875;2.266045;0.6157349;2.193152;
637949465771117278;1226.876;18;6;3.5;0.2;2;1099;3.18471337579618;0.9848077;1.673648;0.9399992;1.654047;-0.8660251;0.9999995;-0.7804843;1.031252;
637949465783109115;1228.076;18;6;3.5;0.2;2;1200;2.91666666666667;-0.9848078;1.673648;-0.9389265;1.698601;0.9848077;1.673648;0.9399992;1.654047;
637949465794110803;1229.175;18;6;3.5;0.2;2;1099;3.18471337579618;0.8660256;1;0.8230106;1.061231;-0.9848078;1.673648;-0.9389265;1.698601;
637949465804102333;1230.175;18;6;3.5;0.2;2;999;3.5035035035035;-0.6427882;2.266044;-0.672236;2.249084;0.8660256;1;0.8230106;1.061231;
637949465824091237;1232.174;18;6;3.5;0.2;2;1999;1.75087543771886;0.3420205;0.5603075;0.306886;0.6066327;-0.6427882;2.266044;-0.672236;2.249084;
637949465841079782;1233.873;18;6;2;0.6;1.8;800;2.5;-0.3078177;0.6542765;-0.3784834;0.9309665;0;2.4;0.01462165;2.321631;
637949465848078172;1234.573;18;6;2;0.6;1.8;700;2.85714285714286;0.5785087;2.18944;0.5443641;2.323074;-0.3078177;0.6542765;-0.3784834;0.9309665;
637949465857079550;1235.473;18;6;2;0.6;1.8;900;2.22222222222222;-0.7794226;1.05;-0.7843217;1.182732;0.5785087;2.18944;0.5443641;2.323074;
637949465864180635;1236.183;18;6;2;0.6;1.8;710;2.8169014084507;0.8863269;1.656283;0.8844305;1.692574;-0.7794226;1.05;-0.7843217;1.182732;
637949465872171863;1236.983;18;6;2;0.6;1.8;800;2.5;-0.8863271;1.656283;-0.8956831;1.701666;0.8863269;1.656283;0.8844305;1.692574;
637949465880173096;1237.782;18;6;2;0.6;1.8;800;2.5;0.779423;1.05;0.7666823;1.215614;-0.8863271;1.656283;-0.8956831;1.701666;
637949465887166241;1238.482;18;6;2;0.6;1.8;700;2.85714285714286;-0.5785094;2.18944;-0.5452577;2.259323;0.779423;1.05;0.7666823;1.215614;
637949465896160280;1239.382;18;6;2;0.6;1.8;900;2.22222222222222;0.3078185;0.6542768;0.4289404;0.8832814;-0.5785094;2.18944;-0.5452577;2.259323;
637949466394233431;1289.192;18;7;3.5;0.2;2;1000;3.5;-0.3420197;0.5603072;-0.2914215;0.6459941;0;2.5;-0.007681224;2.475205;
637949466422207718;1291.99;18;7;3.5;0.2;2;2798;1.25089349535382;0.6427875;2.266045;0.5683453;2.264706;-0.3420197;0.5603072;-0.2914215;0.6459941;
637949466434209559;1293.19;18;7;3.5;0.2;2;1200;2.91666666666667;-0.8660251;0.9999995;-0.8331792;1.049849;0.6427875;2.266045;0.5683453;2.264706;
637949466446321416;1294.401;18;7;3.5;0.2;2;1211;2.89017341040462;0.9848077;1.673648;0.9457187;1.696615;-0.8660251;0.9999995;-0.8331792;1.049849;
637949466461303713;1295.9;18;7;3.5;0.2;2;1499;2.33488992661775;-0.9848078;1.673648;-0.951265;1.641184;0.9848077;1.673648;0.9457187;1.696615;
637949466474305706;1297.2;18;7;3.5;0.2;2;1300;2.69230769230769;0.8660256;1;0.8260322;1.021812;-0.9848078;1.673648;-0.951265;1.641184;
637949466488287854;1298.599;18;7;3.5;0.2;2;1399;2.50178699070765;-0.6427882;2.266044;-0.6481967;2.278797;0.8660256;1;0.8260322;1.021812;
637949466501284950;1299.898;18;7;3.5;0.2;2;1300;2.69230769230769;0.3420205;0.5603075;0.3179272;0.6344117;-0.6427882;2.266044;-0.6481967;2.278797;
637949466529264072;1302.697;18;7;4;0.1;1.4;1499;2.66844563042028;-0.2394138;0.8422151;-0.2189989;0.8720411;0;2.2;0.003791133;2.199967;
637949466555248328;1305.295;18;7;4;0.1;1.4;2599;1.5390534821085;0.4499513;2.036231;0.4472583;2.045711;-0.2394138;0.8422151;-0.2189989;0.8720411;
637949466568252335;1306.595;18;7;4;0.1;1.4;1299;3.07929176289453;-0.6062176;1.15;-0.5961133;1.180523;0.4499513;2.036231;0.4472583;2.045711;
637949466589234132;1308.694;18;7;4;0.1;1.4;2099;1.90566936636494;0.6893654;1.621554;0.6739881;1.620039;-0.6062176;1.15;-0.5961133;1.180523;
637949466606338419;1310.405;18;7;4;0.1;1.4;1711;2.33781414377557;-0.6893655;1.621553;-0.6506513;1.603757;0.6893654;1.621554;0.6739881;1.620039;
637949466618330503;1311.604;18;7;4;0.1;1.4;1199;3.33611342785655;0.6062179;1.15;0.5756257;1.179629;-0.6893655;1.621553;-0.6506513;1.603757;
637949466631322762;1312.903;18;7;4;0.1;1.4;1299;3.07929176289453;-0.4499517;2.036231;-0.4357618;2.041826;0.6062179;1.15;0.5756257;1.179629;
637949466643314845;1314.103;18;7;4;0.1;1.4;1199;3.33611342785655;0.2394144;0.8422153;0.2113158;0.8659055;-0.4499517;2.036231;-0.4357618;2.041826;
637949466658307453;1315.602;18;7;1.5;1.1;2;699;2.14592274678112;-0.3420197;0.5603072;-0.2275274;1.023261;0;2.5;-0.07923678;2.267402;
637949466664308493;1316.202;18;7;1.5;1.1;2;600;2.5;0.6427875;2.266045;0.5737304;2.296263;-0.3420197;0.5603072;-0.2275274;1.023261;
637949466679301100;1317.701;18;7;1.5;1.1;2;1499;1.00066711140761;-0.8660251;0.9999995;-0.587225;1.398948;0.6427875;2.266045;0.5737304;2.296263;
637949466688292666;1318.6;18;7;1.5;1.1;2;899;1.66852057842047;0.9848077;1.673648;0.6930377;1.862053;-0.8660251;0.9999995;-0.587225;1.398948;
637949466695293880;1319.3;18;7;1.5;1.1;2;700;2.14285714285714;-0.9848078;1.673648;-0.6882491;1.910052;0.9848077;1.673648;0.6930377;1.862053;
637949466703285268;1320.1;18;7;1.5;1.1;2;800;1.875;0.8660256;1;0.6605849;1.300906;-0.9848078;1.673648;-0.6882491;1.910052;
637949466710286482;1320.8;18;7;1.5;1.1;2;700;2.14285714285714;-0.6427882;2.266044;-0.5651256;2.424006;0.8660256;1;0.6605849;1.300906;
637949466719278047;1321.699;18;7;1.5;1.1;2;899;1.66852057842047;0.3420205;0.5603075;0.3325689;1.026683;-0.6427882;2.266044;-0.5651256;2.424006;
637949466759375012;1325.708;18;7;4.5;0.1;2.2;2110;2.13270142180095;-0.3762217;0.4663379;-0.3683393;0.4863275;0;2.6;-0.003774764;2.570171;
637949466773357445;1327.108;18;7;4.5;0.1;2.2;1399;3.21658327376698;0.7070663;2.342649;0.7025976;2.350454;-0.3762217;0.4663379;-0.3683393;0.4863275;
637949466800352136;1329.806;18;7;4.5;0.1;2.2;2699;1.66728417932568;-0.9526277;0.9499994;-0.9283749;0.9570922;0.7070663;2.342649;0.7025976;2.350454;
637949466817345090;1331.506;18;7;4.5;0.1;2.2;1699;2.64861683343143;1.083289;1.691013;1.045972;1.701823;-0.9526277;0.9499994;-0.9283749;0.9570922;
637949466844439800;1334.216;18;7;4.5;0.1;2.2;2710;1.66051660516605;-1.083289;1.691012;-1.07779;1.69714;1.083289;1.691013;1.045972;1.701823;
637949466860432579;1335.815;18;7;4.5;0.1;2.2;1599;2.81425891181989;0.9526281;0.9500003;0.9260002;0.9919367;-1.083289;1.691012;-1.07779;1.69714;
637949466889417610;1338.713;18;7;4.5;0.1;2.2;2898;1.5527950310559;-0.7070671;2.342648;-0.6847133;2.345917;0.9526281;0.9500003;0.9260002;0.9919367;
637949466906400825;1340.412;18;7;4.5;0.1;2.2;1699;2.64861683343143;0.3762226;0.4663382;0.3770569;0.5084292;-0.7070671;2.342648;-0.6847133;2.345917;
637949466944382361;1344.211;18;7;3;0.2;1.4;2299;1.30491518051327;-0.2394138;0.8422151;-0.2349353;0.8904178;0;2.2;-0.003509606;2.21911;
637949466955375651;1345.31;18;7;3;0.2;1.4;1099;2.72975432211101;0.4499513;2.036231;0.4381096;2.001976;-0.2394138;0.8422151;-0.2349353;0.8904178;
637949466970368255;1346.809;18;7;3;0.2;1.4;1499;2.00133422281521;-0.6062176;1.15;-0.5675506;1.206464;0.4499513;2.036231;0.4381096;2.001976;
637949466980369996;1347.809;18;7;3;0.2;1.4;1000;3;0.6893654;1.621554;0.6671053;1.644361;-0.6062176;1.15;-0.5675506;1.206464;
637949466993692310;1349.148;18;7;3;0.2;1.4;1339;2.24047796863331;-0.6893655;1.621553;-0.7821335;1.636814;0.6893654;1.621554;0.6671053;1.644361;
637949467005464354;1350.319;18;7;3;0.2;1.4;1171;2.56191289496157;0.6062179;1.15;0.5962526;1.197822;-0.6893655;1.621553;-0.7821335;1.636814;
637949467016456267;1351.419;18;7;3;0.2;1.4;1099;2.72975432211101;-0.4499517;2.036231;-0.4746998;2.046652;0.6062179;1.15;0.5962526;1.197822;
637949467028458354;1352.618;18;7;3;0.2;1.4;1200;2.5;0.2394144;0.8422153;0.2764386;0.906325;-0.4499517;2.036231;-0.4746998;2.046652;
637949467043440957;1354.117;18;7;2;0.6;1.8;800;2.5;-0.3078177;0.6542765;-0.2336601;0.8828752;0;2.4;0.0059543;2.276052;
637949467050442170;1354.817;18;7;2;0.6;1.8;700;2.85714285714286;0.5785087;2.18944;0.5052712;2.265988;-0.3078177;0.6542765;-0.2336601;0.8828752;
637949467058443560;1355.617;18;7;2;0.6;1.8;800;2.5;-0.7794226;1.05;-0.7504167;1.231749;0.5785087;2.18944;0.5052712;2.265988;
637949467066434949;1356.416;18;7;2;0.6;1.8;800;2.5;0.8863269;1.656283;0.8653662;1.776778;-0.7794226;1.05;-0.7504167;1.231749;
637949467075426515;1357.316;18;7;2;0.6;1.8;899;2.22469410456062;-0.8863271;1.656283;-0.9729083;1.653241;0.8863269;1.656283;0.8653662;1.776778;
637949467084428078;1358.215;18;7;2;0.6;1.8;900;2.22222222222222;0.779423;1.05;0.7124075;1.198791;-0.8863271;1.656283;-0.9729083;1.653241;
637949467092419468;1359.015;18;7;2;0.6;1.8;800;2.5;-0.5785094;2.18944;-0.4458884;2.194606;0.779423;1.05;0.7124075;1.198791;
637949467100410857;1359.815;18;7;2;0.6;1.8;800;2.5;0.3078185;0.6542768;0.3303911;0.946927;-0.5785094;2.18944;-0.4458884;2.194606;
637949467118413992;1361.614;18;7;2.5;0.3;1.4;900;2.77777777777778;-0.2394138;0.8422151;-0.2178105;0.9288301;0;2.2;-0.06262121;2.220341;
637949467127395551;1362.513;18;7;2.5;0.3;1.4;899;2.78086763070078;0.4499513;2.036231;0.5137469;2.139307;-0.2394138;0.8422151;-0.2178105;0.9288301;
637949467137507303;1363.524;18;7;2.5;0.3;1.4;1011;2.47279920870425;-0.6062176;1.15;-0.5721964;1.273053;0.4499513;2.036231;0.5137469;2.139307;
637949467145498698;1364.324;18;7;2.5;0.3;1.4;800;3.125;0.6893654;1.621554;0.7376738;1.646093;-0.6062176;1.15;-0.5721964;1.273053;
637949467156500608;1365.423;18;7;2.5;0.3;1.4;1100;2.27272727272727;-0.6893655;1.621553;-0.6824979;1.660457;0.6893654;1.621554;0.7376738;1.646093;
637949467165492166;1366.323;18;7;2.5;0.3;1.4;900;2.77777777777778;0.6062179;1.15;0.5416596;1.224607;-0.6893655;1.621553;-0.6824979;1.660457;
637949467179484599;1367.722;18;7;2.5;0.3;1.4;1399;1.78699070764832;-0.4499517;2.036231;-0.4374257;2.040736;0.6062179;1.15;0.5416596;1.224607;
637949467188476163;1368.622;18;7;2.5;0.3;1.4;899;2.78086763070078;0.2394144;0.8422153;0.2342746;0.9424752;-0.4499517;2.036231;-0.4374257;2.040736;
