637949542850419874;403.7855;19;0;3;0.2;1.4;799;3.75469336670839;-0.2394138;0.8422151;-0.214345;0.8549259;0;2.2;0.004082107;2.245558;
637949542874525199;406.1956;19;0;3;0.2;1.4;2269;1.32216835610401;0.4499513;2.036231;0.4387779;2.057809;-0.2394138;0.8422151;-0.214345;0.8549259;
637949542884527415;407.1955;19;0;3;0.2;1.4;1000;3;-0.6062176;1.15;-0.5572029;1.180527;0.4499513;2.036231;0.4387779;2.057809;
637949542896510056;408.3948;19;0;3;0.2;1.4;1199;2.50208507089241;0.6893654;1.621554;0.5947846;1.632191;-0.6062176;1.15;-0.5572029;1.180527;
637949542908502707;409.5941;19;0;3;0.2;1.4;1199;2.50208507089241;-0.6893655;1.621553;-0.691295;1.662771;0.6893654;1.621554;0.5947846;1.632191;
637949542920495357;410.7935;19;0;3;0.2;1.4;1199;2.50208507089241;0.6062179;1.15;0.5695823;1.086728;-0.6893655;1.621553;-0.691295;1.662771;
637949542931487789;411.893;19;0;3;0.2;1.4;1100;2.72727272727273;-0.4499517;2.036231;-0.3894607;2.04525;0.6062179;1.15;0.5695823;1.086728;
637949542943480430;413.0925;19;0;3;0.2;1.4;1199;2.50208507089241;0.2394144;0.8422153;0.2195388;0.8785207;-0.4499517;2.036231;-0.3894607;2.04525;
637949542970476408;415.7913;19;0;3.5;0.2;2;1599;2.18886804252658;-0.3420197;0.5603072;-0.3170394;0.5615003;0;2.5;0.01653856;2.401582;
637949542982469055;416.9906;19;0;3.5;0.2;2;1199;2.91909924937448;0.6427875;2.266045;0.6299703;2.278001;-0.3420197;0.5603072;-0.3170394;0.5615003;
637949542994581733;418.2021;19;0;3.5;0.2;2;1211;2.89017341040462;-0.8660251;0.9999995;-0.8099165;1.026303;0.6427875;2.266045;0.6299703;2.278001;
637949543004583941;419.2021;19;0;3.5;0.2;2;1000;3.5;0.9848077;1.673648;1.007039;1.663898;-0.8660251;0.9999995;-0.8099165;1.026303;
637949543015556362;420.2999;19;0;3.5;0.2;2;1098;3.18761384335155;-0.9848078;1.673648;-0.9150408;1.719645;0.9848077;1.673648;1.007039;1.663898;
637949543025838636;421.3352;19;0;3.5;0.2;2;1035;3.3816425120773;0.8660256;1;0.9531386;0.9756302;-0.9848078;1.673648;-0.9150408;1.719645;
637949543046553215;423.3987;19;0;3.5;0.2;2;2064;1.69573643410853;-0.6427882;2.266044;-0.625214;2.184778;0.8660256;1;0.9531386;0.9756302;
637949543059546089;424.6985;19;0;3.5;0.2;2;1300;2.69230769230769;0.3420205;0.5603075;0.2922887;0.635139;-0.6427882;2.266044;-0.625214;2.184778;
637949543077530057;426.4973;19;0;2;0.6;1.8;900;2.22222222222222;-0.3078177;0.6542765;-0.2332823;0.8109698;0;2.4;0.03264166;2.398916;
637949543089532703;427.697;19;0;2;0.6;1.8;1200;1.66666666666667;0.5785087;2.18944;0.5613032;2.20246;-0.3078177;0.6542765;-0.2332823;0.8109698;
637949543097524478;428.4966;19;0;2;0.6;1.8;800;2.5;-0.7794226;1.05;-0.552906;1.234264;0.5785087;2.18944;0.5613032;2.20246;
637949543108516906;429.5962;19;0;2;0.6;1.8;1100;1.81818181818182;0.8863269;1.656283;0.8295319;1.654948;-0.7794226;1.05;-0.552906;1.234264;
637949543118541691;430.5983;19;0;2;0.6;1.8;1002;1.99600798403194;-0.8863271;1.656283;-0.7430816;1.659558;0.8863269;1.656283;0.8295319;1.654948;
637949543128503892;431.5949;19;0;2;0.6;1.8;997;2.00601805416249;0.779423;1.05;0.6127573;1.222638;-0.8863271;1.656283;-0.7430816;1.659558;
637949543138506104;432.5945;19;0;2;0.6;1.8;999;2.002002002002;-0.5785094;2.18944;-0.4941142;2.06674;0.779423;1.05;0.6127573;1.222638;
637949543148508313;433.5943;19;0;2;0.6;1.8;1000;2;0.3078185;0.6542768;0.2823251;0.7278136;-0.5785094;2.18944;-0.4941142;2.06674;
637949543168605471;435.6042;19;0;1.5;1.1;2;999;1.5015015015015;-0.3420197;0.5603072;-0.1718378;0.8549949;0;2.5;0.01069579;2.231604;
637949543177595546;436.5037;19;0;1.5;1.1;2;900;1.66666666666667;0.6427875;2.266045;0.5395908;2.061771;-0.3420197;0.5603072;-0.1718378;0.8549949;
637949543187595409;437.5037;19;0;1.5;1.1;2;1000;1.5;-0.8660251;0.9999995;-0.6213233;1.253584;0.6427875;2.266045;0.5395908;2.061771;
637949543197593291;438.503;19;0;1.5;1.1;2;999;1.5015015015015;0.9848077;1.673648;0.826872;1.51587;-0.8660251;0.9999995;-0.6213233;1.253584;
637949543205584621;439.3024;19;0;1.5;1.1;2;799;1.87734668335419;-0.9848078;1.673648;-0.7872498;1.713013;0.9848077;1.673648;0.826872;1.51587;
637949543215572868;440.3017;19;0;1.5;1.1;2;999;1.5015015015015;0.8660256;1;0.7730387;1.20565;-0.9848078;1.673648;-0.7872498;1.713013;
637949543224574647;441.202;19;0;1.5;1.1;2;900;1.66666666666667;-0.6427882;2.266044;-0.4550754;2.093221;0.8660256;1;0.7730387;1.20565;
637949543233650416;442.1011;19;0;1.5;1.1;2;899;1.66852057842047;0.3420205;0.5603075;0.2811313;0.8075352;-0.6427882;2.266044;-0.4550754;2.093221;
637949543254565043;444.2006;19;0;4;0.1;1.4;999;4.004004004004;-0.2394138;0.8422151;-0.2160367;0.8823894;0;2.2;0.007583051;2.242922;
637949543266557695;445.3994;19;0;4;0.1;1.4;1199;3.33611342785655;0.4499513;2.036231;0.4180093;2.001543;-0.2394138;0.8422151;-0.2160367;0.8823894;
637949543276659926;446.4101;19;0;4;0.1;1.4;1011;3.95647873392681;-0.6062176;1.15;-0.578063;1.174882;0.4499513;2.036231;0.4180093;2.001543;
637949543293653673;448.1097;19;0;4;0.1;1.4;1700;2.35294117647059;0.6893654;1.621554;0.6637742;1.622783;-0.6062176;1.15;-0.578063;1.174882;
637949543304646108;449.2088;19;0;4;0.1;1.4;1099;3.63967242948135;-0.6893655;1.621553;-0.6499601;1.632921;0.6893654;1.621554;0.6637742;1.622783;
637949543316638753;450.4082;19;0;4;0.1;1.4;1199;3.33611342785655;0.6062179;1.15;0.5896042;1.175284;-0.6893655;1.621553;-0.6499601;1.632921;
637949543327641189;451.5079;19;0;4;0.1;1.4;1100;3.63636363636364;-0.4499517;2.036231;-0.4505375;2.034955;0.6062179;1.15;0.5896042;1.175284;
637949543348625822;453.6067;19;0;4;0.1;1.4;2099;1.90566936636494;0.2394144;0.8422153;0.2287752;0.8753052;-0.4499517;2.036231;-0.4505375;2.034955;
637949543396606434;458.4046;19;0;4.5;0.1;2.2;3399;1.32391879964696;-0.3762217;0.4663379;-0.3627321;0.4752262;0;2.6;-0.001979388;2.613;
637949543410599524;459.804;19;0;4.5;0.1;2.2;1399;3.21658327376698;0.7070663;2.342649;0.6927426;2.313137;-0.3762217;0.4663379;-0.3627321;0.4752262;
637949543422592171;461.0035;19;0;4.5;0.1;2.2;1199;3.75312760633862;-0.9526277;0.9499994;-0.9275818;0.992986;0.7070663;2.342649;0.6927426;2.313137;
637949543452688821;464.0132;19;0;4.5;0.1;2.2;3010;1.49501661129568;1.083289;1.691013;1.064267;1.711137;-0.9526277;0.9499994;-0.9275818;0.992986;
637949543464681473;465.2125;19;0;4.5;0.1;2.2;1199;3.75312760633862;-1.083289;1.691012;-1.034043;1.682674;1.083289;1.691013;1.064267;1.711137;
637949543476684129;466.4122;19;0;4.5;0.1;2.2;1200;3.75;0.9526281;0.9500003;0.9788626;0.987169;-1.083289;1.691012;-1.034043;1.682674;
637949543491667438;467.9111;19;0;4.5;0.1;2.2;1499;3.00200133422282;-0.7070671;2.342648;-0.6695043;2.370469;0.9526281;0.9500003;0.9788626;0.987169;
637949543507666005;469.5106;19;0;4.5;0.1;2.2;1599;2.81425891181989;0.3762226;0.4663382;0.3897381;0.4825773;-0.7070671;2.342648;-0.6695043;2.370469;
637949543525650206;471.3095;19;0;2.5;0.3;1.4;800;3.125;-0.2394138;0.8422151;-0.2058059;0.8450723;0;2.2;0.04707728;2.240267;
637949543534652194;472.2092;19;0;2.5;0.3;1.4;900;2.77777777777778;0.4499513;2.036231;0.4652822;1.996165;-0.2394138;0.8422151;-0.2058059;0.8450723;
637949543543652634;473.1091;19;0;2.5;0.3;1.4;900;2.77777777777778;-0.6062176;1.15;-0.4851314;1.211111;0.4499513;2.036231;0.4652822;1.996165;
637949543558633716;474.608;19;0;2.5;0.3;1.4;1499;1.66777851901268;0.6893654;1.621554;0.7095687;1.628258;-0.6062176;1.15;-0.4851314;1.211111;
637949543567635702;475.508;19;0;2.5;0.3;1.4;900;2.77777777777778;-0.6893655;1.621553;-0.679901;1.689471;0.6893654;1.621554;0.7095687;1.628258;
637949543576747714;476.4186;19;0;2.5;0.3;1.4;911;2.74423710208562;0.6062179;1.15;0.6458728;1.228796;-0.6893655;1.621553;-0.679901;1.689471;
637949543584739483;477.2179;19;0;2.5;0.3;1.4;799;3.12891113892365;-0.4499517;2.036231;-0.5747604;2.027886;0.6062179;1.15;0.6458728;1.228796;
637949543593731470;478.1175;19;0;2.5;0.3;1.4;900;2.77777777777778;0.2394144;0.8422153;0.2210374;0.9282078;-0.4499517;2.036231;-0.5747604;2.027886;
637949545912453794;709.99;19;1;4.5;0.1;2.2;1301;3.45887778631822;-0.3762217;0.4663379;-0.3946882;0.4955651;0;2.6;0.003682763;2.576077;
637949545927537130;711.4985;19;1;4.5;0.1;2.2;1509;2.98210735586481;0.7070663;2.342649;0.6587071;2.337921;-0.3762217;0.4663379;-0.3946882;0.4955651;
637949545946441304;713.3888;19;1;4.5;0.1;2.2;1890;2.38095238095238;-0.9526277;0.9499994;-0.9334305;0.9960405;0.7070663;2.342649;0.6587071;2.337921;
637949545958513972;714.5967;19;1;4.5;0.1;2.2;1208;3.72516556291391;1.083289;1.691013;1.052583;1.653146;-0.9526277;0.9499994;-0.9334305;0.9960405;
637949545972517068;715.9974;19;1;4.5;0.1;2.2;1401;3.21199143468951;-1.083289;1.691012;-1.059473;1.71871;1.083289;1.691013;1.052583;1.653146;
637949545985499938;717.2955;19;1;4.5;0.1;2.2;1298;3.46687211093991;0.9526281;0.9500003;0.9242;0.9749678;-1.083289;1.691012;-1.059473;1.71871;
637949545998492807;718.5948;19;1;4.5;0.1;2.2;1299;3.46420323325635;-0.7070671;2.342648;-0.6862099;2.343699;0.9526281;0.9500003;0.9242;0.9749678;
637949546012705948;720.0233;19;1;4.5;0.1;2.2;1428;3.15126050420168;0.3762226;0.4663382;0.4130549;0.4388554;-0.7070671;2.342648;-0.6862099;2.343699;
637949546033480540;722.093;19;1;3;0.2;1.4;1099;2.72975432211101;-0.2394138;0.8422151;-0.2496706;0.8548962;0;2.2;0.003759082;2.205164;
637949546044482969;723.1929;19;1;3;0.2;1.4;1100;2.72727272727273;0.4499513;2.036231;0.4085511;2.046553;-0.2394138;0.8422151;-0.2496706;0.8548962;
637949546054485181;724.1925;19;1;3;0.2;1.4;1000;3;-0.6062176;1.15;-0.564651;1.18929;0.4499513;2.036231;0.4085511;2.046553;
637949546064477382;725.1922;19;1;3;0.2;1.4;1000;3;0.6893654;1.621554;0.7119731;1.626289;-0.6062176;1.15;-0.564651;1.18929;
637949546074479597;726.192;19;1;3;0.2;1.4;1000;3;-0.6893655;1.621553;-0.7604942;1.628439;0.6893654;1.621554;0.7119731;1.626289;
637949546087472470;727.4922;19;1;3;0.2;1.4;1300;2.30769230769231;0.6062179;1.15;0.5771596;1.169196;-0.6893655;1.621553;-0.7604942;1.628439;
637949546106556686;729.4011;19;1;3;0.2;1.4;1909;1.57150340492404;-0.4499517;2.036231;-0.4290757;2.002526;0.6062179;1.15;0.5771596;1.169196;
637949546119550901;730.7006;19;1;3;0.2;1.4;1299;2.3094688221709;0.2394144;0.8422153;0.2047329;0.8861231;-0.4499517;2.036231;-0.4290757;2.002526;
637949546140542341;732.7991;19;1;2;0.6;1.8;999;2.002002002002;-0.3078177;0.6542765;-0.2423427;0.8575914;0;2.4;0.009877734;2.290097;
637949546150534556;733.7987;19;1;2;0.6;1.8;1000;2;0.5785087;2.18944;0.5447878;2.149655;-0.3078177;0.6542765;-0.2423427;0.8575914;
637949546159536536;734.6985;19;1;2;0.6;1.8;900;2.22222222222222;-0.7794226;1.05;-0.687586;1.149989;0.5785087;2.18944;0.5447878;2.149655;
637949546177519835;736.4976;19;1;2;0.6;1.8;1799;1.11172873818788;0.8863269;1.656283;0.7438467;1.642095;-0.7794226;1.05;-0.687586;1.149989;
637949546186521194;737.3972;19;1;2;0.6;1.8;900;2.22222222222222;-0.8863271;1.656283;-0.6816185;1.729113;0.8863269;1.656283;0.7438467;1.642095;
637949546197510007;738.4968;19;1;2;0.6;1.8;1100;1.81818181818182;0.779423;1.05;0.6721163;1.227211;-0.8863271;1.656283;-0.6816185;1.729113;
637949546206509277;739.3964;19;1;2;0.6;1.8;900;2.22222222222222;-0.5785094;2.18944;-0.4298793;2.058735;0.779423;1.05;0.6721163;1.227211;
637949546217513746;740.496;19;1;2;0.6;1.8;1100;1.81818181818182;0.3078185;0.6542768;0.2468397;0.8924043;-0.5785094;2.18944;-0.4298793;2.058735;
637949546255602157;744.3052;19;1;4;0.1;1.4;2099;1.90566936636494;-0.2394138;0.8422151;-0.2546936;0.8534744;0;2.2;-0.0157499;2.234281;
637949546270595474;745.8049;19;1;4;0.1;1.4;1500;2.66666666666667;0.4499513;2.036231;0.4281179;2.06195;-0.2394138;0.8422151;-0.2546936;0.8534744;
637949546283588344;747.1039;19;1;4;0.1;1.4;1299;3.07929176289453;-0.6062176;1.15;-0.5891034;1.182074;0.4499513;2.036231;0.4281179;2.06195;
637949546299581877;748.703;19;1;4;0.1;1.4;1599;2.50156347717323;0.6893654;1.621554;0.6910933;1.637523;-0.6062176;1.15;-0.5891034;1.182074;
637949546311574533;749.9025;19;1;4;0.1;1.4;1199;3.33611342785655;-0.6893655;1.621553;-0.6993163;1.605389;0.6893654;1.621554;0.6910933;1.637523;
637949546336560048;752.4012;19;1;4;0.1;1.4;2499;1.60064025610244;0.6062179;1.15;0.5894193;1.183823;-0.6893655;1.621553;-0.6993163;1.605389;
637949546351553366;753.9007;19;1;4;0.1;1.4;1499;2.66844563042028;-0.4499517;2.036231;-0.4464823;2.018078;0.6062179;1.15;0.5894193;1.183823;
637949546366546674;755.3997;19;1;4;0.1;1.4;1499;2.66844563042028;0.2394144;0.8422153;0.2222538;0.8423784;-0.4499517;2.036231;-0.4464823;2.018078;
637949546381650012;756.9106;19;1;1.5;1.1;2;710;2.11267605633803;-0.3420197;0.5603072;-0.1128661;0.8712581;0;2.5;0.03464299;2.199897;
637949546388651565;757.6103;19;1;1.5;1.1;2;700;2.14285714285714;0.6427875;2.266045;0.4922267;2.102418;-0.3420197;0.5603072;-0.1128661;0.8712581;
637949546402634648;759.0094;19;1;1.5;1.1;2;1399;1.07219442458899;-0.8660251;0.9999995;-0.5593751;1.335769;0.6427875;2.266045;0.4922267;2.102418;
637949546409636197;759.7091;19;1;1.5;1.1;2;700;2.14285714285714;0.9848077;1.673648;0.6995746;1.624262;-0.8660251;0.9999995;-0.5593751;1.335769;
637949546416637744;760.4091;19;1;1.5;1.1;2;700;2.14285714285714;-0.9848078;1.673648;-0.7984299;1.75101;0.9848077;1.673648;0.6995746;1.624262;
637949546424630235;761.2083;19;1;1.5;1.1;2;799;1.87734668335419;0.8660256;1;0.7544351;1.339484;-0.9848078;1.673648;-0.7984299;1.75101;
637949546432630129;762.0081;19;1;1.5;1.1;2;800;1.875;-0.6427882;2.266044;-0.4865022;2.116596;0.8660256;1;0.7544351;1.339484;
637949546440619807;762.8076;19;1;1.5;1.1;2;799;1.87734668335419;0.3420205;0.5603075;0.385982;0.9164685;-0.6427882;2.266044;-0.4865022;2.116596;
637949546461610008;764.9066;19;1;3.5;0.2;2;1199;2.91909924937448;-0.3420197;0.5603072;-0.3444292;0.5591967;0;2.5;-0.001670036;2.481459;
637949546471610201;765.9061;19;1;3.5;0.2;2;1000;3.5;0.6427875;2.266045;0.5788263;2.240667;-0.3420197;0.5603072;-0.3444292;0.5591967;
637949546486603512;767.4055;19;1;3.5;0.2;2;1499;2.33488992661775;-0.8660251;0.9999995;-0.7921705;1.005899;0.6427875;2.266045;0.5788263;2.240667;
637949546496605721;768.4063;19;1;3.5;0.2;2;1001;3.4965034965035;0.9848077;1.673648;0.9244334;1.636548;-0.8660251;0.9999995;-0.7921705;1.005899;
637949546514699721;770.2153;19;1;3.5;0.2;2;1809;1.93477059148701;-0.9848078;1.673648;-0.91037;1.692817;0.9848077;1.673648;0.9244334;1.636548;
637949546526692371;771.415;19;1;3.5;0.2;2;1200;2.91666666666667;0.8660256;1;0.8473682;1.013225;-0.9848078;1.673648;-0.91037;1.692817;
637949546537684800;772.5141;19;1;3.5;0.2;2;1099;3.18471337579618;-0.6427882;2.266044;-0.7055836;2.278791;0.8660256;1;0.8473682;1.013225;
637949546548687228;773.6137;19;1;3.5;0.2;2;1100;3.18181818181818;0.3420205;0.5603075;0.3870789;0.625621;-0.6427882;2.266044;-0.7055836;2.278791;
637949546563680547;775.1135;19;1;2.5;0.3;1.4;700;3.57142857142857;-0.2394138;0.8422151;-0.2339239;0.8496119;0;2.2;-0.0009680954;2.310812;
637949546571672311;775.9127;19;1;2.5;0.3;1.4;799;3.12891113892365;0.4499513;2.036231;0.5353892;1.96668;-0.2394138;0.8422151;-0.2339239;0.8496119;
637949546579674079;776.7125;19;1;2.5;0.3;1.4;800;3.125;-0.6062176;1.15;-0.613889;1.1404;0.4499513;2.036231;0.5353892;1.96668;
637949546586665618;777.4116;19;1;2.5;0.3;1.4;699;3.57653791130186;0.6893654;1.621554;0.6760379;1.660589;-0.6062176;1.15;-0.613889;1.1404;
637949546594657394;778.2114;19;1;2.5;0.3;1.4;800;3.125;-0.6893655;1.621553;-0.7317882;1.651158;0.6893654;1.621554;0.6760379;1.660589;
637949546604659600;779.211;19;1;2.5;0.3;1.4;1000;2.5;0.6062179;1.15;0.6473791;1.19147;-0.6893655;1.621553;-0.7317882;1.651158;
637949546611651144;779.9107;19;1;2.5;0.3;1.4;700;3.57142857142857;-0.4499517;2.036231;-0.4932446;2.008479;0.6062179;1.15;0.6473791;1.19147;
637949546619652915;780.7104;19;1;2.5;0.3;1.4;800;3.125;0.2394144;0.8422153;0.2625545;0.8856237;-0.4499517;2.036231;-0.4932446;2.008479;
637949548452353471;963.981;19;2;3.5;0.2;2;1100;3.18181818181818;-0.3420197;0.5603072;-0.3136693;0.5475773;0;2.5;-0.02917045;2.493356;
637949548462345685;964.981;19;2;3.5;0.2;2;1000;3.5;0.6427875;2.266045;0.6099815;2.28172;-0.3420197;0.5603072;-0.3136693;0.5475773;
637949548472447941;965.9908;19;2;3.5;0.2;2;1010;3.46534653465347;-0.8660251;0.9999995;-0.7930232;1.028242;0.6427875;2.266045;0.6099815;2.28172;
637949548483450397;967.0908;19;2;3.5;0.2;2;1100;3.18181818181818;0.9848077;1.673648;0.9480725;1.688732;-0.8660251;0.9999995;-0.7930232;1.028242;
637949548495443073;968.2903;19;2;3.5;0.2;2;1200;2.91666666666667;-0.9848078;1.673648;-0.9092472;1.694873;0.9848077;1.673648;0.9480725;1.688732;
637949548506435530;969.3893;19;2;3.5;0.2;2;1099;3.18471337579618;0.8660256;1;0.8650634;1.035062;-0.9848078;1.673648;-0.9092472;1.694873;
637949548516427753;970.3891;19;2;3.5;0.2;2;1000;3.5;-0.6427882;2.266044;-0.5749843;2.28034;0.8660256;1;0.8650634;1.035062;
637949548533801638;972.1334;19;2;3.5;0.2;2;1744;2.00688073394495;0.3420205;0.5603075;0.3043974;0.4830881;-0.6427882;2.266044;-0.5749843;2.28034;
637949548553406016;974.0872;19;2;2.5;0.3;1.4;1099;2.27479526842584;-0.2394138;0.8422151;-0.2227548;0.9045546;0;2.2;0.01293514;2.103878;
637949548563408250;975.0867;19;2;2.5;0.3;1.4;1000;2.5;0.4499513;2.036231;0.3574303;1.989761;-0.2394138;0.8422151;-0.2227548;0.9045546;
637949548572400257;975.9863;19;2;2.5;0.3;1.4;899;2.78086763070078;-0.6062176;1.15;-0.5338076;1.119948;0.4499513;2.036231;0.3574303;1.989761;
637949548580402047;976.7862;19;2;2.5;0.3;1.4;800;3.125;0.6893654;1.621554;0.6920098;1.611439;-0.6062176;1.15;-0.5338076;1.119948;
637949548589394053;977.6857;19;2;2.5;0.3;1.4;899;2.78086763070078;-0.6893655;1.621553;-0.7221158;1.612523;0.6893654;1.621554;0.6920098;1.611439;
637949548598386059;978.5853;19;2;2.5;0.3;1.4;900;2.77777777777778;0.6062179;1.15;0.7058542;1.216882;-0.6893655;1.621553;-0.7221158;1.612523;
637949548606377845;979.3845;19;2;2.5;0.3;1.4;799;3.12891113892365;-0.4499517;2.036231;-0.5592602;2.030834;0.6062179;1.15;0.7058542;1.216882;
637949548622491443;980.9952;19;2;2.5;0.3;1.4;1611;1.55183116076971;0.2394144;0.8422153;0.185165;0.9567361;-0.4499517;2.036231;-0.5592602;2.030834;
637949548637484791;982.4946;19;2;1.5;1.1;2;800;1.875;-0.3420197;0.5603072;-0.243409;0.9804316;0;2.5;0.06599365;2.043865;
637949548643476127;983.0943;19;2;1.5;1.1;2;600;2.5;0.6427875;2.266045;0.4299289;1.924821;-0.3420197;0.5603072;-0.243409;0.9804316;
637949548656479029;984.3937;19;2;1.5;1.1;2;1299;1.15473441108545;-0.8660251;0.9999995;-0.5285013;1.331876;0.6427875;2.266045;0.4299289;1.924821;
637949548663470590;985.0934;19;2;1.5;1.1;2;700;2.14285714285714;0.9848077;1.673648;0.7894636;1.649198;-0.8660251;0.9999995;-0.5285013;1.331876;
637949548670470872;985.793;19;2;1.5;1.1;2;700;2.14285714285714;-0.9848078;1.673648;-0.646315;1.752764;0.9848077;1.673648;0.7894636;1.649198;
637949548678467276;986.5927;19;2;1.5;1.1;2;800;1.875;0.8660256;1;0.65887;1.356955;-0.9848078;1.673648;-0.646315;1.752764;
637949548687459283;987.492;19;2;1.5;1.1;2;899;1.66852057842047;-0.6427882;2.266044;-0.2914167;1.938021;0.8660256;1;0.65887;1.356955;
637949548696451287;988.3918;19;2;1.5;1.1;2;900;1.66666666666667;0.3420205;0.5603075;0.3054726;0.8937124;-0.6427882;2.266044;-0.2914167;1.938021;
637949548722440759;990.9904;19;2;3;0.2;1.4;1299;2.3094688221709;-0.2394138;0.8422151;-0.2359981;0.8521634;0;2.2;0.01496932;2.161093;
637949548732440741;991.9899;19;2;3;0.2;1.4;1000;3;0.4499513;2.036231;0.4353234;2.091131;-0.2394138;0.8422151;-0.2359981;0.8521634;
637949548742430926;992.9894;19;2;3;0.2;1.4;999;3.003003003003;-0.6062176;1.15;-0.5401173;1.172647;0.4499513;2.036231;0.4353234;2.091131;
637949548752431738;993.9893;19;2;3;0.2;1.4;1000;3;0.6893654;1.621554;0.674212;1.606873;-0.6062176;1.15;-0.5401173;1.172647;
637949548761428887;994.889;19;2;3;0.2;1.4;900;3.33333333333333;-0.6893655;1.621553;-0.7183014;1.645136;0.6893654;1.621554;0.674212;1.606873;
637949548771530314;995.8992;19;2;3;0.2;1.4;1010;2.97029702970297;0.6062179;1.15;0.5964143;1.223846;-0.6893655;1.621553;-0.7183014;1.645136;
637949548785519826;997.2987;19;2;3;0.2;1.4;1399;2.14438884917798;-0.4499517;2.036231;-0.4152822;2.016341;0.6062179;1.15;0.5964143;1.223846;
637949548796530622;998.3986;19;2;3;0.2;1.4;1100;2.72727272727273;0.2394144;0.8422153;0.2216549;0.8828323;-0.4499517;2.036231;-0.4152822;2.016341;
637949548821506857;1000.897;19;2;4;0.1;1.4;1299;3.07929176289453;-0.2394138;0.8422151;-0.234858;0.8797159;0;2.2;0.02201307;2.19209;
637949548840501101;1002.796;19;2;4;0.1;1.4;1899;2.10637177461822;0.4499513;2.036231;0.4385635;2.038085;-0.2394138;0.8422151;-0.234858;0.8797159;
637949548852493786;1003.996;19;2;4;0.1;1.4;1199;3.33611342785655;-0.6062176;1.15;-0.5769503;1.16577;0.4499513;2.036231;0.4385635;2.038085;
637949548862486020;1004.995;19;2;4;0.1;1.4;1000;4;0.6893654;1.621554;0.641756;1.630473;-0.6062176;1.15;-0.5769503;1.16577;
637949548871488026;1005.895;19;2;4;0.1;1.4;900;4.44444444444444;-0.6893655;1.621553;-0.6934336;1.619672;0.6893654;1.621554;0.641756;1.630473;
637949548886581396;1007.405;19;2;4;0.1;1.4;1510;2.64900662251656;0.6062179;1.15;0.5773165;1.175812;-0.6893655;1.621553;-0.6934336;1.619672;
637949548897583852;1008.505;19;2;4;0.1;1.4;1100;3.63636363636364;-0.4499517;2.036231;-0.4397983;2.007397;0.6062179;1.15;0.5773165;1.175812;
637949548909586535;1009.705;19;2;4;0.1;1.4;1200;3.33333333333333;0.2394144;0.8422153;0.2068251;0.8730092;-0.4499517;2.036231;-0.4397983;2.007397;
637949548925570094;1011.303;19;2;2;0.6;1.8;900;2.22222222222222;-0.3078177;0.6542765;-0.1851107;0.7576988;0;2.4;0.09571175;2.313404;
637949548939563225;1012.703;19;2;2;0.6;1.8;1399;1.42959256611866;0.5785087;2.18944;0.4711954;2.159972;-0.3078177;0.6542765;-0.1851107;0.7576988;
637949548948555236;1013.602;19;2;2;0.6;1.8;899;2.22469410456062;-0.7794226;1.05;-0.6042479;1.270352;0.5785087;2.18944;0.4711954;2.159972;
637949548956557021;1014.402;19;2;2;0.6;1.8;800;2.5;0.8863269;1.656283;0.8697983;1.546379;-0.7794226;1.05;-0.6042479;1.270352;
637949548963548576;1015.101;19;2;2;0.6;1.8;700;2.85714285714286;-0.8863271;1.656283;-0.605051;1.693817;0.8863269;1.656283;0.8697983;1.546379;
637949548972550596;1016.001;19;2;2;0.6;1.8;900;2.22222222222222;0.779423;1.05;0.7910734;1.113507;-0.8863271;1.656283;-0.605051;1.693817;
637949548988544161;1017.6;19;2;2;0.6;1.8;1599;1.25078173858662;-0.5785094;2.18944;-0.474649;2.151548;0.779423;1.05;0.7910734;1.113507;
637949548997536169;1018.5;19;2;2;0.6;1.8;899;2.22469410456062;0.3078185;0.6542768;0.24279;0.8815337;-0.5785094;2.18944;-0.474649;2.151548;
637949549028523088;1021.599;19;2;4.5;0.1;2.2;1569;2.86806883365201;-0.3762217;0.4663379;-0.3708944;0.45514;0;2.6;-0.01833328;2.641208;
637949549040515764;1022.798;19;2;4.5;0.1;2.2;1199;3.75312760633862;0.7070663;2.342649;0.6820026;2.33465;-0.3762217;0.4663379;-0.3708944;0.45514;
637949549056619362;1024.408;19;2;4.5;0.1;2.2;1610;2.79503105590062;-0.9526277;0.9499994;-0.912623;0.9595121;0.7070663;2.342649;0.6820026;2.33465;
637949549068612040;1025.608;19;2;4.5;0.1;2.2;1199;3.75312760633862;1.083289;1.691013;1.042945;1.712308;-0.9526277;0.9499994;-0.912623;0.9595121;
637949549080604717;1026.807;19;2;4.5;0.1;2.2;1199;3.75312760633862;-1.083289;1.691012;-1.071104;1.6647;1.083289;1.691013;1.042945;1.712308;
637949549099604092;1028.706;19;2;4.5;0.1;2.2;1899;2.3696682464455;0.9526281;0.9500003;0.9205985;0.9817451;-1.083289;1.691012;-1.071104;1.6647;
637949549124586653;1031.205;19;2;4.5;0.1;2.2;2499;1.80072028811525;-0.7070671;2.342648;-0.7370279;2.339015;0.9526281;0.9500003;0.9205985;0.9817451;
637949549136809383;1032.435;19;2;4.5;0.1;2.2;1229;3.66151342554923;0.3762226;0.4663382;0.3600356;0.5136229;-0.7070671;2.342648;-0.7370279;2.339015;
637949550935300323;1212.277;19;3;2;0.6;1.8;809;2.47218788627936;-0.3078177;0.6542765;-0.3282108;0.8903345;0;2.4;-0.02805585;2.270979;
637949550942290176;1212.976;19;3;2;0.6;1.8;699;2.86123032904149;0.5785087;2.18944;0.5197441;2.013999;-0.3078177;0.6542765;-0.3282108;0.8903345;
637949550950290261;1213.776;19;3;2;0.6;1.8;799;2.50312891113892;-0.7794226;1.05;-0.8127664;1.092928;0.5785087;2.18944;0.5197441;2.013999;
637949550957291831;1214.476;19;3;2;0.6;1.8;700;2.85714285714286;0.8863269;1.656283;0.7598904;1.584265;-0.7794226;1.05;-0.8127664;1.092928;
637949550965283610;1215.275;19;3;2;0.6;1.8;800;2.5;-0.8863271;1.656283;-0.8178243;1.715163;0.8863269;1.656283;0.7598904;1.584265;
637949550973275396;1216.075;19;3;2;0.6;1.8;799;2.50312891113892;0.779423;1.05;0.7403922;1.176535;-0.8863271;1.656283;-0.8178243;1.715163;
637949550980276956;1216.775;19;3;2;0.6;1.8;700;2.85714285714286;-0.5785094;2.18944;-0.4276526;2.079978;0.779423;1.05;0.7403922;1.176535;
637949550988268745;1217.574;19;3;2;0.6;1.8;800;2.5;0.3078185;0.6542768;0.2476225;0.8723713;-0.5785094;2.18944;-0.4276526;2.079978;
637949551005262535;1219.274;19;3;2.5;0.3;1.4;900;2.77777777777778;-0.2394138;0.8422151;-0.2197446;0.8870651;0;2.2;-0.02477445;2.159718;
637949551013264321;1220.073;19;3;2.5;0.3;1.4;800;3.125;0.4499513;2.036231;0.4030632;2.071718;-0.2394138;0.8422151;-0.2197446;0.8870651;
637949551021256107;1220.873;19;3;2.5;0.3;1.4;800;3.125;-0.6062176;1.15;-0.6482446;1.182942;0.4499513;2.036231;0.4030632;2.071718;
637949551035249231;1222.272;19;3;2.5;0.3;1.4;1399;1.78699070764832;0.6893654;1.621554;0.5842891;1.605109;-0.6062176;1.15;-0.6482446;1.182942;
637949551044361265;1223.182;19;3;2.5;0.3;1.4;911;2.74423710208562;-0.6893655;1.621553;-0.5914295;1.630333;0.6893654;1.621554;0.5842891;1.605109;
637949551053353270;1224.082;19;3;2.5;0.3;1.4;899;2.78086763070078;0.6062179;1.15;0.5471535;1.25431;-0.6893655;1.621553;-0.5914295;1.630333;
637949551063345502;1225.082;19;3;2.5;0.3;1.4;1000;2.5;-0.4499517;2.036231;-0.4149963;2.013329;0.6062179;1.15;0.5471535;1.25431;
637949551072347514;1225.981;19;3;2.5;0.3;1.4;900;2.77777777777778;0.2394144;0.8422153;0.2166247;0.8915131;-0.4499517;2.036231;-0.4149963;2.013329;
637949551085340416;1227.28;19;3;1.5;1.1;2;699;2.14592274678112;-0.3420197;0.5603072;-0.1785793;1.038549;0;2.5;-0.001700621;2.292893;
637949551092341978;1227.981;19;3;1.5;1.1;2;701;2.1398002853067;0.6427875;2.266045;0.5619932;2.092479;-0.3420197;0.5603072;-0.1785793;1.038549;
637949551100333762;1228.78;19;3;1.5;1.1;2;799;1.87734668335419;-0.8660251;0.9999995;-0.6542732;1.240191;0.6427875;2.266045;0.5619932;2.092479;
637949551106335104;1229.38;19;3;1.5;1.1;2;600;2.5;0.9848077;1.673648;0.6915203;1.578732;-0.8660251;0.9999995;-0.6542732;1.240191;
637949551114326883;1230.179;19;3;1.5;1.1;2;799;1.87734668335419;-0.9848078;1.673648;-0.658341;1.687206;0.9848077;1.673648;0.6915203;1.578732;
637949551123318893;1231.079;19;3;1.5;1.1;2;900;1.66666666666667;0.8660256;1;0.6163176;1.399233;-0.9848078;1.673648;-0.658341;1.687206;
637949551131310679;1231.878;19;3;1.5;1.1;2;799;1.87734668335419;-0.6427882;2.266044;-0.4052108;2.082824;0.8660256;1;0.6163176;1.399233;
637949551139312465;1232.678;19;3;1.5;1.1;2;800;1.875;0.3420205;0.5603075;0.3118136;0.9851474;-0.6427882;2.266044;-0.4052108;2.082824;
637949551166298492;1235.377;19;3;4.5;0.1;2.2;1399;3.21658327376698;-0.3762217;0.4663379;-0.4002261;0.5100639;0;2.6;-0.003250832;2.573061;
637949551189293628;1237.676;19;3;4.5;0.1;2.2;2299;1.9573727707699;0.7070663;2.342649;0.7006644;2.350003;-0.3762217;0.4663379;-0.4002261;0.5100639;
637949551206297423;1239.376;19;3;4.5;0.1;2.2;1700;2.64705882352941;-0.9526277;0.9499994;-0.921855;0.9816038;0.7070663;2.342649;0.7006644;2.350003;
637949551218386251;1240.585;19;3;4.5;0.1;2.2;1210;3.71900826446281;1.083289;1.691013;1.036178;1.694998;-0.9526277;0.9499994;-0.921855;0.9816038;
637949551231379151;1241.885;19;3;4.5;0.1;2.2;1299;3.46420323325635;-1.083289;1.691012;-1.053492;1.716396;1.083289;1.691013;1.036178;1.694998;
637949551257377045;1244.484;19;3;4.5;0.1;2.2;2599;1.73143516737207;0.9526281;0.9500003;0.9173232;0.9729275;-1.083289;1.691012;-1.053492;1.716396;
637949551270359191;1245.783;19;3;4.5;0.1;2.2;1299;3.46420323325635;-0.7070671;2.342648;-0.7377774;2.342591;0.9526281;0.9500003;0.9173232;0.9729275;
637949551281650057;1246.92;19;3;4.5;0.1;2.2;1137;3.95778364116095;0.3762226;0.4663382;0.3778768;0.5151541;-0.7070671;2.342648;-0.7377774;2.342591;
637949551304345127;1249.182;19;3;3.5;0.2;2;1000;3.5;-0.3420197;0.5603072;-0.3194293;0.5873321;0;2.5;-0.006858906;2.451649;
637949551312336911;1249.981;19;3;3.5;0.2;2;799;4.38047559449312;0.6427875;2.266045;0.621347;2.253467;-0.3420197;0.5603072;-0.3194293;0.5873321;
637949551322339145;1250.981;19;3;3.5;0.2;2;1000;3.5;-0.8660251;0.9999995;-0.8600647;1.054539;0.6427875;2.266045;0.621347;2.253467;
637949551331341153;1251.88;19;3;3.5;0.2;2;899;3.89321468298109;0.9848077;1.673648;0.9950573;1.637322;-0.8660251;0.9999995;-0.8600647;1.054539;
637949551340443187;1252.791;19;3;3.5;0.2;2;911;3.84193194291987;-0.9848078;1.673648;-1.014284;1.722584;0.9848077;1.673648;0.9950573;1.637322;
637949551349445198;1253.691;19;3;3.5;0.2;2;900;3.88888888888889;0.8660256;1;0.8292051;1.0899;-0.9848078;1.673648;-1.014284;1.722584;
637949551358437204;1254.59;19;3;3.5;0.2;2;899;3.89321468298109;-0.6427882;2.266044;-0.6288888;2.220298;0.8660256;1;0.8292051;1.0899;
637949551367429209;1255.49;19;3;3.5;0.2;2;900;3.88888888888889;0.3420205;0.5603075;0.3087197;0.6222852;-0.6427882;2.266044;-0.6288888;2.220298;
637949551390424344;1257.789;19;3;4;0.1;1.4;1099;3.63967242948135;-0.2394138;0.8422151;-0.2035106;0.8645487;0;2.2;-0.04182937;2.218837;
637949551399696416;1258.724;19;3;4;0.1;1.4;935;4.27807486631016;0.4499513;2.036231;0.4640402;2.081454;-0.2394138;0.8422151;-0.2035106;0.8645487;
637949551409688648;1259.724;19;3;4;0.1;1.4;999;4.004004004004;-0.6062176;1.15;-0.5606266;1.139771;0.4499513;2.036231;0.4640402;2.081454;
637949551419400814;1260.687;19;3;4;0.1;1.4;964;4.149377593361;0.6893654;1.621554;0.6960768;1.626298;-0.6062176;1.15;-0.5606266;1.139771;
637949551428402826;1261.587;19;3;4;0.1;1.4;900;4.44444444444444;-0.6893655;1.621553;-0.7048425;1.640943;0.6893654;1.621554;0.6960768;1.626298;
637949551437624885;1262.516;19;3;4;0.1;1.4;929;4.30570505920344;0.6062179;1.15;0.6439621;1.146488;-0.6893655;1.621553;-0.7048425;1.640943;
637949551449387510;1263.686;19;3;4;0.1;1.4;1170;3.41880341880342;-0.4499517;2.036231;-0.4534904;2.044861;0.6062179;1.15;0.6439621;1.146488;
637949551460389960;1264.785;19;3;4;0.1;1.4;1099;3.63967242948135;0.2394144;0.8422153;0.1934669;0.8568686;-0.4499517;2.036231;-0.4534904;2.044861;
637949551477383761;1266.484;19;3;3;0.2;1.4;800;3.75;-0.2394138;0.8422151;-0.2070098;0.9087191;0;2.2;-0.03049913;2.171966;
637949551485375544;1267.285;19;3;3;0.2;1.4;800;3.75;0.4499513;2.036231;0.3964507;2.084147;-0.2394138;0.8422151;-0.2070098;0.9087191;
637949551494377558;1268.184;19;3;3;0.2;1.4;899;3.33704115684093;-0.6062176;1.15;-0.598415;1.181519;0.4499513;2.036231;0.3964507;2.084147;
637949551504479804;1269.195;19;3;3;0.2;1.4;1011;2.9673590504451;0.6893654;1.621554;0.6414919;1.621;-0.6062176;1.15;-0.598415;1.181519;
637949551513471820;1270.094;19;3;3;0.2;1.4;899;3.33704115684093;-0.6893655;1.621553;-0.6678309;1.658868;0.6893654;1.621554;0.6414919;1.621;
637949551522463826;1270.994;19;3;3;0.2;1.4;900;3.33333333333333;0.6062179;1.15;0.6259728;1.207965;-0.6893655;1.621553;-0.6678309;1.658868;
637949551533466287;1272.093;19;3;3;0.2;1.4;1099;2.72975432211101;-0.4499517;2.036231;-0.4102124;2.029161;0.6062179;1.15;0.6259728;1.207965;
637949551543458516;1273.093;19;3;3;0.2;1.4;1000;3;0.2394144;0.8422153;0.2004901;0.8810495;-0.4499517;2.036231;-0.4102124;2.029161;
637949553155042974;1434.251;19;4;3.5;0.2;2;1299;2.69438029253272;-0.3420197;0.5603072;-0.32153;0.6576542;0;2.5;-0.00155347;2.411739;
637949553166045428;1435.351;19;4;3.5;0.2;2;1100;3.18181818181818;0.6427875;2.266045;0.5905757;2.278039;-0.3420197;0.5603072;-0.32153;0.6576542;
637949553176041254;1436.351;19;4;3.5;0.2;2;1000;3.5;-0.8660251;0.9999995;-0.7891169;1.038315;0.6427875;2.266045;0.5905757;2.278039;
637949553186033909;1437.351;19;4;3.5;0.2;2;1000;3.5;0.9848077;1.673648;0.9322679;1.6622;-0.8660251;0.9999995;-0.7891169;1.038315;
637949553204019435;1439.149;19;4;3.5;0.2;2;1798;1.94660734149054;-0.9848078;1.673648;-1.013114;1.655697;0.9848077;1.673648;0.9322679;1.6622;
637949553215011888;1440.248;19;4;3.5;0.2;2;1099;3.18471337579618;0.8660256;1;0.796712;1.044355;-0.9848078;1.673648;-1.013114;1.655697;
637949553224013900;1441.148;19;4;3.5;0.2;2;900;3.88888888888889;-0.6427882;2.266044;-0.6763923;2.279258;0.8660256;1;0.796712;1.044355;
637949553236006578;1442.348;19;4;3.5;0.2;2;1200;2.91666666666667;0.3420205;0.5603075;0.2990193;0.6100479;-0.6427882;2.266044;-0.6763923;2.279258;
637949553250999922;1443.847;19;4;2;0.6;1.8;800;2.5;-0.3078177;0.6542765;-0.2063807;0.7979902;0;2.4;0.02946579;2.174096;
637949553263102630;1445.057;19;4;2;0.6;1.8;1210;1.65289256198347;0.5785087;2.18944;0.4664059;2.024002;-0.3078177;0.6542765;-0.2063807;0.7979902;
637949553271094412;1445.857;19;4;2;0.6;1.8;800;2.5;-0.7794226;1.05;-0.7758231;1.203684;0.5785087;2.18944;0.4664059;2.024002;
637949553277095761;1446.456;19;4;2;0.6;1.8;599;3.33889816360601;0.8863269;1.656283;0.8325095;1.66491;-0.7794226;1.05;-0.7758231;1.203684;
637949553283997291;1447.145;19;4;2;0.6;1.8;689;2.90275761973875;-0.8863271;1.656283;-0.9592687;1.788449;0.8863269;1.656283;0.8325095;1.66491;
637949553291088876;1447.856;19;4;2;0.6;1.8;711;2.81293952180028;0.779423;1.05;0.7512131;1.237617;-0.8863271;1.656283;-0.9592687;1.788449;
637949553299080659;1448.656;19;4;2;0.6;1.8;800;2.5;-0.5785094;2.18944;-0.4829456;2.210547;0.779423;1.05;0.7512131;1.237617;
637949553306082229;1449.356;19;4;2;0.6;1.8;700;2.85714285714286;0.3078185;0.6542768;0.3023453;0.6881226;-0.5785094;2.18944;-0.4829456;2.210547;
637949553343070484;1453.053;19;4;4.5;0.1;2.2;2598;1.73210161662818;-0.3762217;0.4663379;-0.3671226;0.4897767;0;2.6;0.009918591;2.628362;
637949553357063609;1454.453;19;4;4.5;0.1;2.2;1400;3.21428571428571;0.7070663;2.342649;0.6732907;2.322028;-0.3762217;0.4663379;-0.3671226;0.4897767;
637949553382329248;1456.987;19;4;4.5;0.1;2.2;2534;1.77584846093133;-0.9526277;0.9499994;-0.9663245;0.9961255;0.7070663;2.342649;0.6732907;2.322028;
637949553421137914;1460.861;19;4;4.5;0.1;2.2;3874;1.16159008776458;1.083289;1.691013;1.046129;1.696165;-0.9526277;0.9499994;-0.9663245;0.9961255;
637949553433130592;1462.06;19;4;4.5;0.1;2.2;1199;3.75312760633862;-1.083289;1.691012;-1.079405;1.69825;1.083289;1.691013;1.046129;1.696165;
637949553458126176;1464.559;19;4;4.5;0.1;2.2;2499;1.80072028811525;0.9526281;0.9500003;0.9176874;0.9839584;-1.083289;1.691012;-1.079405;1.69825;
637949553475115012;1466.258;19;4;4.5;0.1;2.2;1699;2.64861683343143;-0.7070671;2.342648;-0.6927528;2.382535;0.9526281;0.9500003;0.9176874;0.9839584;
637949553489105405;1467.658;19;4;4.5;0.1;2.2;1399;3.21658327376698;0.3762226;0.4663382;0.3557844;0.4865381;-0.7070671;2.342648;-0.6927528;2.382535;
637949553508369706;1469.592;19;4;3;0.2;1.4;1037;2.89296046287367;-0.2394138;0.8422151;-0.2386773;0.7635564;0;2.2;0.0174864;2.184608;
637949553521092541;1470.856;19;4;3;0.2;1.4;1264;2.37341772151899;0.4499513;2.036231;0.4082876;2.033644;-0.2394138;0.8422151;-0.2386773;0.7635564;
637949553531202914;1471.867;19;4;3;0.2;1.4;1011;2.9673590504451;-0.6062176;1.15;-0.6108009;1.195802;0.4499513;2.036231;0.4082876;2.033644;
637949553539193313;1472.667;19;4;3;0.2;1.4;800;3.75;0.6893654;1.621554;0.7004635;1.645897;-0.6062176;1.15;-0.6108009;1.195802;
637949553549184256;1473.666;19;4;3;0.2;1.4;1000;3;-0.6893655;1.621553;-0.7499354;1.659552;0.6893654;1.621554;0.7004635;1.645897;
637949553558293178;1474.577;19;4;3;0.2;1.4;911;3.29308452250274;0.6062179;1.15;0.5933591;1.201089;-0.6893655;1.621553;-0.7499354;1.659552;
637949553568293073;1475.576;19;4;3;0.2;1.4;999;3.003003003003;-0.4499517;2.036231;-0.4120173;2.009845;0.6062179;1.15;0.5933591;1.201089;
637949553579288752;1476.676;19;4;3;0.2;1.4;1100;2.72727272727273;0.2394144;0.8422153;0.2226678;0.9369817;-0.4499517;2.036231;-0.4120173;2.009845;
637949553611380663;1479.885;19;4;4;0.1;1.4;2110;1.8957345971564;-0.2394138;0.8422151;-0.2256545;0.8550981;0;2.2;-0.03152395;2.186312;
637949553633375571;1482.084;19;4;4;0.1;1.4;2199;1.81900864029104;0.4499513;2.036231;0.4581048;2.023862;-0.2394138;0.8422151;-0.2256545;0.8550981;
637949553644368025;1483.184;19;4;4;0.1;1.4;1100;3.63636363636364;-0.6062176;1.15;-0.5714694;1.183397;0.4499513;2.036231;0.4581048;2.023862;
637949553653360033;1484.083;19;4;4;0.1;1.4;899;4.44938820912125;0.6893654;1.621554;0.7200185;1.632772;-0.6062176;1.15;-0.5714694;1.183397;
637949553665362713;1485.283;19;4;4;0.1;1.4;1200;3.33333333333333;-0.6893655;1.621553;-0.6708076;1.661269;0.6893654;1.621554;0.7200185;1.632772;
637949553679345833;1486.682;19;4;4;0.1;1.4;1399;2.85918513223731;0.6062179;1.15;0.5624791;1.132592;-0.6893655;1.621553;-0.6708076;1.661269;
637949553690348293;1487.782;19;4;4;0.1;1.4;1100;3.63636363636364;-0.4499517;2.036231;-0.4383634;2.026392;0.6062179;1.15;0.5624791;1.132592;
637949553717334312;1490.481;19;4;4;0.1;1.4;2699;1.48203038162282;0.2394144;0.8422153;0.242121;0.8763962;-0.4499517;2.036231;-0.4383634;2.026392;
637949553744440364;1493.19;19;4;2.5;0.3;1.4;1110;2.25225225225225;-0.2394138;0.8422151;-0.2185635;0.9484018;0;2.2;0.005012733;2.234535;
637949553752422156;1493.99;19;4;2.5;0.3;1.4;800;3.125;0.4499513;2.036231;0.399431;2.001685;-0.2394138;0.8422151;-0.2185635;0.9484018;
637949553761424168;1494.89;19;4;2.5;0.3;1.4;900;2.77777777777778;-0.6062176;1.15;-0.5624104;1.23616;0.4499513;2.036231;0.399431;2.001685;
637949553772416616;1495.989;19;4;2.5;0.3;1.4;1099;2.27479526842584;0.6893654;1.621554;0.6361338;1.701612;-0.6062176;1.15;-0.5624104;1.23616;
637949553781418629;1496.889;19;4;2.5;0.3;1.4;900;2.77777777777778;-0.6893655;1.621553;-0.7959953;1.691315;0.6893654;1.621554;0.6361338;1.701612;
637949553789410408;1497.688;19;4;2.5;0.3;1.4;800;3.125;0.6062179;1.15;0.5412288;1.246886;-0.6893655;1.621553;-0.7959953;1.691315;
637949553797412198;1498.488;19;4;2.5;0.3;1.4;800;3.125;-0.4499517;2.036231;-0.4117579;2.045302;0.6062179;1.15;0.5412288;1.246886;
637949553805403980;1499.288;19;4;2.5;0.3;1.4;800;3.125;0.2394144;0.8422153;0.2532564;0.9297507;-0.4499517;2.036231;-0.4117579;2.045302;
637949553818396883;1500.587;19;4;1.5;1.1;2;699;2.14592274678112;-0.3420197;0.5603072;-0.1947344;0.9710044;0;2.5;0.01182351;2.237628;
637949553825398445;1501.287;19;4;1.5;1.1;2;700;2.14285714285714;0.6427875;2.266045;0.5039502;2.081951;-0.3420197;0.5603072;-0.1947344;0.9710044;
637949553832390007;1501.986;19;4;1.5;1.1;2;699;2.14592274678112;-0.8660251;0.9999995;-0.6965744;1.377111;0.6427875;2.266045;0.5039502;2.081951;
637949553839381566;1502.686;19;4;1.5;1.1;2;699;2.14592274678112;0.9848077;1.673648;0.6717179;1.64712;-0.8660251;0.9999995;-0.6965744;1.377111;
637949553845382910;1503.286;19;4;1.5;1.1;2;600;2.5;-0.9848078;1.673648;-0.6988092;1.709859;0.9848077;1.673648;0.6717179;1.64712;
637949553851384248;1503.885;19;4;1.5;1.1;2;600;2.5;0.8660256;1;0.7104309;1.306304;-0.9848078;1.673648;-0.6988092;1.709859;
637949553858375808;1504.585;19;4;1.5;1.1;2;700;2.14285714285714;-0.6427882;2.266044;-0.4632814;2.256211;0.8660256;1;0.7104309;1.306304;
637949553865377374;1505.285;19;4;1.5;1.1;2;700;2.14285714285714;0.3420205;0.5603075;0.2138654;0.9766871;-0.6427882;2.266044;-0.4632814;2.256211;
637949554784732572;1597.22;19;5;2.5;0.3;1.4;900;2.77777777777778;-0.2394138;0.8422151;-0.2355526;0.9306788;0;2.2;0.08307046;2.22046;
637949554793724578;1598.12;19;5;2.5;0.3;1.4;899;2.78086763070078;0.4499513;2.036231;0.5336599;2.019658;-0.2394138;0.8422151;-0.2355526;0.9306788;
637949554802716588;1599.019;19;5;2.5;0.3;1.4;899;2.78086763070078;-0.6062176;1.15;-0.5139807;1.242552;0.4499513;2.036231;0.5336599;2.019658;
637949554811708598;1599.918;19;5;2.5;0.3;1.4;900;2.77777777777778;0.6893654;1.621554;0.7111758;1.611115;-0.6062176;1.15;-0.5139807;1.242552;
637949554819710384;1600.718;19;5;2.5;0.3;1.4;800;3.125;-0.6893655;1.621553;-0.7139077;1.66471;0.6893654;1.621554;0.7111758;1.611115;
637949554828812406;1601.629;19;5;2.5;0.3;1.4;911;2.74423710208562;0.6062179;1.15;0.5973801;1.279895;-0.6893655;1.621553;-0.7139077;1.66471;
637949554837814429;1602.528;19;5;2.5;0.3;1.4;900;2.77777777777778;-0.4499517;2.036231;-0.4331166;2.070711;0.6062179;1.15;0.5973801;1.279895;
637949554845806208;1603.328;19;5;2.5;0.3;1.4;800;3.125;0.2394144;0.8422153;0.2465748;0.9103549;-0.4499517;2.036231;-0.4331166;2.070711;
637949554864800449;1605.227;19;5;3.5;0.2;2;998;3.50701402805611;-0.3420197;0.5603072;-0.2988554;0.627515;0;2.5;0.02657045;2.508715;
637949554873792456;1606.127;19;5;3.5;0.2;2;900;3.88888888888889;0.6427875;2.266045;0.6090502;2.255682;-0.3420197;0.5603072;-0.2988554;0.627515;
637949554882784463;1607.026;19;5;3.5;0.2;2;899;3.89321468298109;-0.8660251;0.9999995;-0.8361694;1.066791;0.6427875;2.266045;0.6090502;2.255682;
637949554893786921;1608.126;19;5;3.5;0.2;2;1100;3.18181818181818;0.9848077;1.673648;0.9254305;1.67932;-0.8660251;0.9999995;-0.8361694;1.066791;
637949554904779379;1609.225;19;5;3.5;0.2;2;1099;3.18471337579618;-0.9848078;1.673648;-0.8969998;1.709953;0.9848077;1.673648;0.9254305;1.67932;
637949554922773393;1611.025;19;5;3.5;0.2;2;1799;1.94552529182879;0.8660256;1;0.802174;1.040825;-0.9848078;1.673648;-0.8969998;1.709953;
637949554932765624;1612.024;19;5;3.5;0.2;2;999;3.5035035035035;-0.6427882;2.266044;-0.6009681;2.299064;0.8660256;1;0.802174;1.040825;
637949554940767409;1612.824;19;5;3.5;0.2;2;800;4.375;0.3420205;0.5603075;0.3415193;0.6592538;-0.6427882;2.266044;-0.6009681;2.299064;
637949554984856649;1617.233;19;5;4.5;0.1;2.2;2710;1.66051660516605;-0.3762217;0.4663379;-0.3789948;0.4961309;0;2.6;-0.02728365;2.617598;
637949555011842677;1619.931;19;5;4.5;0.1;2.2;2698;1.66790214974055;0.7070663;2.342649;0.6792992;2.344551;-0.3762217;0.4663379;-0.3789948;0.4961309;
637949555023837745;1621.131;19;5;4.5;0.1;2.2;1200;3.75;-0.9526277;0.9499994;-0.9182032;0.9828252;0.7070663;2.342649;0.6792992;2.344551;
637949555039827455;1622.73;19;5;4.5;0.1;2.2;1599;2.81425891181989;1.083289;1.691013;1.058961;1.710123;-0.9526277;0.9499994;-0.9182032;0.9828252;
637949555051820432;1623.929;19;5;4.5;0.1;2.2;1199;3.75312760633862;-1.083289;1.691012;-1.055025;1.716199;1.083289;1.691013;1.058961;1.710123;
637949555063814993;1625.129;19;5;4.5;0.1;2.2;1200;3.75;0.9526281;0.9500003;0.9569594;0.9499574;-1.083289;1.691012;-1.055025;1.716199;
637949555078038168;1626.558;19;5;4.5;0.1;2.2;1429;3.14905528341498;-0.7070671;2.342648;-0.660081;2.331409;0.9526281;0.9500003;0.9569594;0.9499574;
637949555094801911;1628.228;19;5;4.5;0.1;2.2;1669;2.69622528460156;0.3762226;0.4663382;0.3443918;0.502484;-0.7070671;2.342648;-0.660081;2.331409;
637949555108795037;1629.627;19;5;2;0.6;1.8;600;3.33333333333333;-0.3078177;0.6542765;-0.236172;0.773399;0;2.4;0.03776802;2.382026;
637949555113906178;1630.138;19;5;2;0.6;1.8;511;3.91389432485323;0.5785087;2.18944;0.5939565;2.112615;-0.3078177;0.6542765;-0.236172;0.773399;
637949555119907518;1630.738;19;5;2;0.6;1.8;600;3.33333333333333;-0.7794226;1.05;-0.7436333;1.140936;0.5785087;2.18944;0.5939565;2.112615;
637949555127899301;1631.537;19;5;2;0.6;1.8;799;2.50312891113892;0.8863269;1.656283;0.8092988;1.62701;-0.7794226;1.05;-0.7436333;1.140936;
637949555135891084;1632.337;19;5;2;0.6;1.8;800;2.5;-0.8863271;1.656283;-0.8012357;1.731953;0.8863269;1.656283;0.8092988;1.62701;
637949555143892872;1633.137;19;5;2;0.6;1.8;800;2.5;0.779423;1.05;0.6736365;1.326132;-0.8863271;1.656283;-0.8012357;1.731953;
637949555150884433;1633.836;19;5;2;0.6;1.8;699;2.86123032904149;-0.5785094;2.18944;-0.5321202;2.162126;0.779423;1.05;0.6736365;1.326132;
637949555157885998;1634.536;19;5;2;0.6;1.8;700;2.85714285714286;0.3078185;0.6542768;0.2834113;0.8372557;-0.5785094;2.18944;-0.5321202;2.162126;
637949555172879348;1636.035;19;5;3;0.2;1.4;800;3.75;-0.2394138;0.8422151;-0.1776446;0.8761337;0;2.2;-0.02936842;2.200088;
637949555184872022;1637.235;19;5;3;0.2;1.4;1199;2.50208507089241;0.4499513;2.036231;0.4307364;2.007939;-0.2394138;0.8422151;-0.1776446;0.8761337;
637949555192873809;1638.034;19;5;3;0.2;1.4;800;3.75;-0.6062176;1.15;-0.5524006;1.196593;0.4499513;2.036231;0.4307364;2.007939;
637949555199865370;1638.734;19;5;3;0.2;1.4;699;4.29184549356223;0.6893654;1.621554;0.7081912;1.666954;-0.6062176;1.15;-0.5524006;1.196593;
637949555207867156;1639.534;19;5;3;0.2;1.4;800;3.75;-0.6893655;1.621553;-0.7137924;1.636238;0.6893654;1.621554;0.7081912;1.666954;
637949555215858942;1640.333;19;5;3;0.2;1.4;800;3.75;0.6062179;1.15;0.5353966;1.182118;-0.6893655;1.621553;-0.7137924;1.636238;
637949555224850948;1641.233;19;5;3;0.2;1.4;899;3.33704115684093;-0.4499517;2.036231;-0.4750777;2.032397;0.6062179;1.15;0.5353966;1.182118;
637949555233852958;1642.132;19;5;3;0.2;1.4;900;3.33333333333333;0.2394144;0.8422153;0.2603515;0.8421708;-0.4499517;2.036231;-0.4750777;2.032397;
637949555250846753;1643.831;19;5;4;0.1;1.4;899;4.44938820912125;-0.2394138;0.8422151;-0.2666733;0.8789858;0;2.2;-0.004994692;2.17347;
637949555259838762;1644.731;19;5;4;0.1;1.4;900;4.44444444444444;0.4499513;2.036231;0.4320022;2.011501;-0.2394138;0.8422151;-0.2666733;0.8789858;
637949555267830545;1645.531;19;5;4;0.1;1.4;799;5.00625782227785;-0.6062176;1.15;-0.593442;1.114874;0.4499513;2.036231;0.4320022;2.011501;
637949555310920165;1649.84;19;5;4;0.1;1.4;4309;0.928289626363425;0.6893654;1.621554;0.7009549;1.639476;-0.6062176;1.15;-0.593442;1.114874;
637949555320922398;1650.839;19;5;4;0.1;1.4;1000;4;-0.6893655;1.621553;-0.648181;1.62324;0.6893654;1.621554;0.7009549;1.639476;
637949555330919681;1651.839;19;5;4;0.1;1.4;1000;4;0.6062179;1.15;0.6026826;1.163628;-0.6893655;1.621553;-0.648181;1.62324;
637949555345904464;1653.339;19;5;4;0.1;1.4;1499;2.66844563042028;-0.4499517;2.036231;-0.443136;2.04784;0.6062179;1.15;0.6026826;1.163628;
637949555354906478;1654.238;19;5;4;0.1;1.4;899;4.44938820912125;0.2394144;0.8422153;0.2267205;0.8760387;-0.4499517;2.036231;-0.443136;2.04784;
637949555367899377;1655.537;19;5;1.5;1.1;2;700;2.14285714285714;-0.3420197;0.5603072;-0.09488078;1.005936;0;2.5;0.02543633;2.211082;
637949555372892199;1656.037;19;5;1.5;1.1;2;500;3;0.6427875;2.266045;0.5259576;1.844912;-0.3420197;0.5603072;-0.09488078;1.005936;
637949555379889461;1656.737;19;5;1.5;1.1;2;700;2.14285714285714;-0.8660251;0.9999995;-0.5840038;1.357468;0.6427875;2.266045;0.5259576;1.844912;
637949555390881918;1657.836;19;5;1.5;1.1;2;1100;1.36363636363636;0.9848077;1.673648;0.6554279;1.560529;-0.8660251;0.9999995;-0.5840038;1.357468;
637949555398003507;1658.548;19;5;1.5;1.1;2;711;2.10970464135021;-0.9848078;1.673648;-0.545771;1.694163;0.9848077;1.673648;0.6554279;1.560529;
637949555403994847;1659.147;19;5;1.5;1.1;2;599;2.50417362270451;0.8660256;1;0.781158;1.296743;-0.9848078;1.673648;-0.545771;1.694163;
637949555411986630;1659.946;19;5;1.5;1.1;2;799;1.87734668335419;-0.6427882;2.266044;-0.4222366;2.074037;0.8660256;1;0.781158;1.296743;
637949555418998195;1660.647;19;5;1.5;1.1;2;701;2.1398002853067;0.3420205;0.5603075;0.4149572;1.057639;-0.6427882;2.266044;-0.4222366;2.074037;
637949556398304420;1758.578;19;6;4.5;0.1;2.2;1000;4.5;-0.3762217;0.4663379;-0.3461701;0.475298;0;2.6;-0.01484938;2.606022;
637949556407294891;1759.478;19;6;4.5;0.1;2.2;900;5;0.7070663;2.342649;0.6965966;2.350162;-0.3762217;0.4663379;-0.3461701;0.475298;
637949556422294625;1760.977;19;6;4.5;0.1;2.2;1499;3.00200133422282;-0.9526277;0.9499994;-0.9161185;0.9399918;0.7070663;2.342649;0.6965966;2.350162;
637949556432294622;1761.977;19;6;4.5;0.1;2.2;1000;4.5;1.083289;1.691013;1.066744;1.700622;-0.9526277;0.9499994;-0.9161185;0.9399918;
637949556442277130;1762.976;19;6;4.5;0.1;2.2;999;4.5045045045045;-1.083289;1.691012;-1.050936;1.693981;1.083289;1.691013;1.066744;1.700622;
637949556456279171;1764.376;19;6;4.5;0.1;2.2;1400;3.21428571428571;0.9526281;0.9500003;0.9594819;0.9243569;-1.083289;1.691012;-1.050936;1.693981;
637949556473384811;1766.086;19;6;4.5;0.1;2.2;1710;2.63157894736842;-0.7070671;2.342648;-0.6878748;2.315527;0.9526281;0.9500003;0.9594819;0.9243569;
637949556496369940;1768.385;19;6;4.5;0.1;2.2;2299;1.9573727707699;0.3762226;0.4663382;0.3590832;0.4702532;-0.7070671;2.342648;-0.6878748;2.315527;
637949556516354410;1770.384;19;6;4;0.1;1.4;800;5;-0.2394138;0.8422151;-0.2414737;0.8261818;0;2.2;0.00708212;2.179977;
637949556538349307;1772.583;19;6;4;0.1;1.4;2199;1.81900864029104;0.4499513;2.036231;0.421192;2.043596;-0.2394138;0.8422151;-0.2414737;0.8261818;
637949556548341544;1773.582;19;6;4;0.1;1.4;1000;4;-0.6062176;1.15;-0.5683464;1.182031;0.4499513;2.036231;0.421192;2.043596;
637949556558333775;1774.582;19;6;4;0.1;1.4;999;4.004004004004;0.6893654;1.621554;0.6768798;1.656473;-0.6062176;1.15;-0.5683464;1.182031;
637949556568336007;1775.581;19;6;4;0.1;1.4;1000;4;-0.6893655;1.621553;-0.6728162;1.658132;0.6893654;1.621554;0.6768798;1.656473;
637949556583329357;1777.081;19;6;4;0.1;1.4;1499;2.66844563042028;0.6062179;1.15;0.5921026;1.190042;-0.6893655;1.621553;-0.6728162;1.658132;
637949556592321364;1777.98;19;6;4;0.1;1.4;900;4.44444444444444;-0.4499517;2.036231;-0.4468847;2.009323;0.6062179;1.15;0.5921026;1.190042;
637949556607314717;1779.479;19;6;4;0.1;1.4;1499;2.66844563042028;0.2394144;0.8422153;0.2292121;0.8656845;-0.4499517;2.036231;-0.4468847;2.009323;
637949556621307837;1780.879;19;6;2.5;0.3;1.4;700;3.57142857142857;-0.2394138;0.8422151;-0.2158412;0.9477099;0;2.2;-0.01498811;2.182859;
637949556626538999;1781.409;19;6;2.5;0.3;1.4;530;4.71698113207547;0.4499513;2.036231;0.5000471;1.908379;-0.2394138;0.8422151;-0.2158412;0.9477099;
637949556634420766;1782.189;19;6;2.5;0.3;1.4;780;3.2051282051282;-0.6062176;1.15;-0.6469541;1.214209;0.4499513;2.036231;0.5000471;1.908379;
637949556641422331;1782.89;19;6;2.5;0.3;1.4;700;3.57142857142857;0.6893654;1.621554;0.6365626;1.569222;-0.6062176;1.15;-0.6469541;1.214209;
637949556651404557;1783.888;19;6;2.5;0.3;1.4;999;2.5025025025025;-0.6893655;1.621553;-0.6118186;1.656163;0.6893654;1.621554;0.6365626;1.569222;
637949556660406567;1784.788;19;6;2.5;0.3;1.4;900;2.77777777777778;0.6062179;1.15;0.5351056;1.25124;-0.6893655;1.621553;-0.6118186;1.656163;
637949556668398352;1785.588;19;6;2.5;0.3;1.4;800;3.125;-0.4499517;2.036231;-0.4219519;2.04349;0.6062179;1.15;0.5351056;1.25124;
637949556675399916;1786.287;19;6;2.5;0.3;1.4;700;3.57142857142857;0.2394144;0.8422153;0.2399479;0.9237417;-0.4499517;2.036231;-0.4219519;2.04349;
637949556700495517;1788.798;19;6;3.5;0.2;2;1199;2.91909924937448;-0.3420197;0.5603072;-0.3112994;0.6047605;0;2.5;0.01253967;2.477111;
637949556713488423;1790.097;19;6;3.5;0.2;2;1299;2.69438029253272;0.6427875;2.266045;0.6325027;2.268708;-0.3420197;0.5603072;-0.3112994;0.6047605;
637949556726491324;1791.396;19;6;3.5;0.2;2;1300;2.69230769230769;-0.8660251;0.9999995;-0.7751856;0.9977289;0.6427875;2.266045;0.6325027;2.268708;
637949556735453318;1792.293;19;6;3.5;0.2;2;897;3.90189520624303;0.9848077;1.673648;0.9263235;1.65813;-0.8660251;0.9999995;-0.7751856;0.9977289;
637949556744485344;1793.195;19;6;3.5;0.2;2;902;3.88026607538803;-0.9848078;1.673648;-0.9526545;1.703684;0.9848077;1.673648;0.9263235;1.65813;
637949556753472394;1794.095;19;6;3.5;0.2;2;900;3.88888888888889;0.8660256;1;0.8235438;1.061486;-0.9848078;1.673648;-0.9526545;1.703684;
637949556766472773;1795.395;19;6;3.5;0.2;2;1299;2.69438029253272;-0.6427882;2.266044;-0.5825291;2.269248;0.8660256;1;0.8235438;1.061486;
637949556777461795;1796.494;19;6;3.5;0.2;2;1099;3.18471337579618;0.3420205;0.5603075;0.3239882;0.604322;-0.6427882;2.266044;-0.5825291;2.269248;
637949556793534347;1798.093;19;6;3;0.2;1.4;800;3.75;-0.2394138;0.8422151;-0.1979923;0.9061879;0;2.2;-0.041634;2.205475;
637949556801443137;1798.893;19;6;3;0.2;1.4;800;3.75;0.4499513;2.036231;0.387726;2.047354;-0.2394138;0.8422151;-0.1979923;0.9061879;
637949556821547624;1800.903;19;6;3;0.2;1.4;2010;1.49253731343284;-0.6062176;1.15;-0.5533888;1.213922;0.4499513;2.036231;0.387726;2.047354;
637949556830539633;1801.802;19;6;3;0.2;1.4;899;3.33704115684093;0.6893654;1.621554;0.7038357;1.6004;-0.6062176;1.15;-0.5533888;1.213922;
637949556839540380;1802.702;19;6;3;0.2;1.4;900;3.33333333333333;-0.6893655;1.621553;-0.6744199;1.680287;0.6893654;1.621554;0.7038357;1.6004;
637949556851537520;1803.902;19;6;3;0.2;1.4;1199;2.50208507089241;0.6062179;1.15;0.564242;1.203182;-0.6893655;1.621553;-0.6744199;1.680287;
637949556860537576;1804.801;19;6;3;0.2;1.4;899;3.33704115684093;-0.4499517;2.036231;-0.4077224;2.008925;0.6062179;1.15;0.564242;1.203182;
637949556869534396;1805.701;19;6;3;0.2;1.4;900;3.33333333333333;0.2394144;0.8422153;0.1995602;0.8458067;-0.4499517;2.036231;-0.4077224;2.008925;
637949556883517514;1807.1;19;6;2;0.6;1.8;699;2.86123032904149;-0.3078177;0.6542765;-0.2624112;0.9372966;0;2.4;0.006552724;2.256454;
637949556889518855;1807.7;19;6;2;0.6;1.8;600;3.33333333333333;0.5785087;2.18944;0.4912644;2.116314;-0.3078177;0.6542765;-0.2624112;0.9372966;
637949556896520419;1808.399;19;6;2;0.6;1.8;699;2.86123032904149;-0.7794226;1.05;-0.6483185;1.21357;0.5785087;2.18944;0.4912644;2.116314;
637949556901511537;1808.899;19;6;2;0.6;1.8;500;4;0.8863269;1.656283;0.7915185;1.617043;-0.7794226;1.05;-0.6483185;1.21357;
637949556909513319;1809.699;19;6;2;0.6;1.8;800;2.5;-0.8863271;1.656283;-0.8383503;1.695213;0.8863269;1.656283;0.7915185;1.617043;
637949556921505996;1810.898;19;6;2;0.6;1.8;1199;1.66805671392827;0.779423;1.05;0.5654366;1.184293;-0.8863271;1.656283;-0.8383503;1.695213;
637949556929497785;1811.698;19;6;2;0.6;1.8;800;2.5;-0.5785094;2.18944;-0.5306762;2.087922;0.779423;1.05;0.5654366;1.184293;
637949556942490687;1812.997;19;6;2;0.6;1.8;1300;1.53846153846154;0.3078185;0.6542768;0.237031;0.8424977;-0.5785094;2.18944;-0.5306762;2.087922;
637949556953603165;1814.108;19;6;1.5;1.1;2;510;2.94117647058824;-0.3420197;0.5603072;-0.2154535;0.9444267;0;2.5;0.05954922;2.217525;
637949556959594501;1814.708;19;6;1.5;1.1;2;599;2.50417362270451;0.6427875;2.266045;0.5267607;2.100703;-0.3420197;0.5603072;-0.2154535;0.9444267;
637949556964595624;1815.207;19;6;1.5;1.1;2;500;3;-0.8660251;0.9999995;-0.6190952;1.305137;0.6427875;2.266045;0.5267607;2.100703;
637949556970596960;1815.807;19;6;1.5;1.1;2;600;2.5;0.9848077;1.673648;0.8171279;1.647692;-0.8660251;0.9999995;-0.6190952;1.305137;
637949556977588517;1816.507;19;6;1.5;1.1;2;700;2.14285714285714;-0.9848078;1.673648;-0.7271536;1.789016;0.9848077;1.673648;0.8171279;1.647692;
637949556984580086;1817.206;19;6;1.5;1.1;2;700;2.14285714285714;0.8660256;1;0.8525696;1.369854;-0.9848078;1.673648;-0.7271536;1.789016;
637949556990581424;1817.806;19;6;1.5;1.1;2;600;2.5;-0.6427882;2.266044;-0.4196039;2.147157;0.8660256;1;0.8525696;1.369854;
637949556997582984;1818.506;19;6;1.5;1.1;2;700;2.14285714285714;0.3420205;0.5603075;0.3044721;0.9350663;-0.6427882;2.266044;-0.4196039;2.147157;
637949557751786058;1893.926;19;7;2.5;0.3;1.4;799;3.12891113892365;-0.2394138;0.8422151;-0.1825114;0.840293;0;2.2;-0.01175032;2.140761;
637949557758777617;1894.626;19;7;2.5;0.3;1.4;700;3.57142857142857;0.4499513;2.036231;0.4389508;1.918224;-0.2394138;0.8422151;-0.1825114;0.840293;
637949557766779406;1895.426;19;7;2.5;0.3;1.4;800;3.125;-0.6062176;1.15;-0.630078;1.2556;0.4499513;2.036231;0.4389508;1.918224;
637949557774771194;1896.225;19;7;2.5;0.3;1.4;800;3.125;0.6893654;1.621554;0.6323169;1.565457;-0.6062176;1.15;-0.630078;1.2556;
637949557782883001;1897.036;19;7;2.5;0.3;1.4;810;3.08641975308642;-0.6893655;1.621553;-0.6253698;1.59779;0.6893654;1.621554;0.6323169;1.565457;
637949557789884562;1897.736;19;7;2.5;0.3;1.4;700;3.57142857142857;0.6062179;1.15;0.5428356;1.234329;-0.6893655;1.621553;-0.6253698;1.59779;
637949557797876350;1898.536;19;7;2.5;0.3;1.4;800;3.125;-0.4499517;2.036231;-0.440852;2.123549;0.6062179;1.15;0.5428356;1.234329;
637949557805868131;1899.335;19;7;2.5;0.3;1.4;799;3.12891113892365;0.2394144;0.8422153;0.2620588;0.8965062;-0.4499517;2.036231;-0.440852;2.123549;
637949557831853933;1901.934;19;7;4;0.1;1.4;1599;2.50156347717323;-0.2394138;0.8422151;-0.2198448;0.8682119;0;2.2;-0.01955609;2.217459;
637949557846857256;1903.433;19;7;4;0.1;1.4;1500;2.66666666666667;0.4499513;2.036231;0.4590884;2.019386;-0.2394138;0.8422151;-0.2198448;0.8682119;
637949557863128143;1905.068;19;7;4;0.1;1.4;1635;2.44648318042813;-0.6062176;1.15;-0.559182;1.166962;0.4499513;2.036231;0.4590884;2.019386;
637949557874840758;1906.232;19;7;4;0.1;1.4;1164;3.43642611683849;0.6893654;1.621554;0.6748703;1.654527;-0.6062176;1.15;-0.559182;1.166962;
637949557897825891;1908.531;19;7;4;0.1;1.4;2299;1.73988690735102;-0.6893655;1.621553;-0.6846029;1.667507;0.6893654;1.621554;0.6748703;1.654527;
637949557912093429;1909.965;19;7;4;0.1;1.4;1434;2.78940027894003;0.6062179;1.15;0.5696477;1.117753;-0.6893655;1.621553;-0.6846029;1.667507;
637949557920925426;1910.841;19;7;4;0.1;1.4;876;4.5662100456621;-0.4499517;2.036231;-0.4269807;2.024227;0.6062179;1.15;0.5696477;1.117753;
637949557932918106;1912.04;19;7;4;0.1;1.4;1199;3.33611342785655;0.2394144;0.8422153;0.2288621;0.8804144;-0.4499517;2.036231;-0.4269807;2.024227;
637949557944920788;1913.24;19;7;1.5;1.1;2;600;2.5;-0.3420197;0.5603072;-0.2057582;0.8643225;0;2.5;-0.03073721;2.28382;
637949557949911900;1913.74;19;7;1.5;1.1;2;500;3;0.6427875;2.266045;0.4144453;2.059614;-0.3420197;0.5603072;-0.2057582;0.8643225;
637949557955913241;1914.339;19;7;1.5;1.1;2;600;2.5;-0.8660251;0.9999995;-0.698428;1.126527;0.6427875;2.266045;0.4144453;2.059614;
637949557968906142;1915.639;19;7;1.5;1.1;2;1299;1.15473441108545;0.9848077;1.673648;0.6089317;1.749655;-0.8660251;0.9999995;-0.698428;1.126527;
637949557973907258;1916.139;19;7;1.5;1.1;2;500;3;-0.9848078;1.673648;-0.4613106;1.842081;0.9848077;1.673648;0.6089317;1.749655;
637949557979898593;1916.738;19;7;1.5;1.1;2;599;2.50417362270451;0.8660256;1;0.6693226;1.243832;-0.9848078;1.673648;-0.4613106;1.842081;
637949557985889937;1917.338;19;7;1.5;1.1;2;599;2.50417362270451;-0.6427882;2.266044;-0.3502094;2.138607;0.8660256;1;0.6693226;1.243832;
637949557992891499;1918.037;19;7;1.5;1.1;2;700;2.14285714285714;0.3420205;0.5603075;0.3184261;0.73309;-0.6427882;2.266044;-0.3502094;2.138607;
637949558015886632;1920.337;19;7;4.5;0.1;2.2;1199;3.75312760633862;-0.3762217;0.4663379;-0.3692978;0.4689759;0;2.6;0.00396983;2.57357;
637949558025878863;1921.336;19;7;4.5;0.1;2.2;999;4.5045045045045;0.7070663;2.342649;0.6910329;2.385186;-0.3762217;0.4663379;-0.3692978;0.4689759;
637949558040872203;1922.835;19;7;4.5;0.1;2.2;1499;3.00200133422282;-0.9526277;0.9499994;-0.920266;0.9747087;0.7070663;2.342649;0.6910329;2.385186;
637949558053144951;1924.07;19;7;4.5;0.1;2.2;1235;3.64372469635628;1.083289;1.691013;1.121189;1.701244;-0.9526277;0.9499994;-0.920266;0.9747087;
637949558076300118;1926.385;19;7;4.5;0.1;2.2;2315;1.9438444924406;-1.083289;1.691012;-1.120365;1.719013;1.083289;1.691013;1.121189;1.701244;
637949558087962725;1927.544;19;7;4.5;0.1;2.2;1159;3.88265746333046;0.9526281;0.9500003;0.945319;0.996838;-1.083289;1.691012;-1.120365;1.719013;
637949558110947853;1929.843;19;7;4.5;0.1;2.2;2299;1.9573727707699;-0.7070671;2.342648;-0.6847286;2.314714;0.9526281;0.9500003;0.945319;0.996838;
637949558126941428;1931.442;19;7;4.5;0.1;2.2;1599;2.81425891181989;0.3762226;0.4663382;0.3732944;0.5018647;-0.7070671;2.342648;-0.6847286;2.314714;
637949558139934327;1932.741;19;7;2;0.6;1.8;600;3.33333333333333;-0.3078177;0.6542765;-0.2299899;0.6999933;0;2.4;0.04855438;2.321004;
637949558146925887;1933.441;19;7;2;0.6;1.8;700;2.85714285714286;0.5785087;2.18944;0.5288043;1.991765;-0.3078177;0.6542765;-0.2299899;0.6999933;
637949558152927230;1934.041;19;7;2;0.6;1.8;600;3.33333333333333;-0.7794226;1.05;-0.6850702;1.135395;0.5785087;2.18944;0.5288043;1.991765;
637949558157928348;1934.541;19;7;2;0.6;1.8;499;4.00801603206413;0.8863269;1.656283;0.9085304;1.681871;-0.7794226;1.05;-0.6850702;1.135395;
637949558164929907;1935.24;19;7;2;0.6;1.8;700;2.85714285714286;-0.8863271;1.656283;-0.7789715;1.679049;0.8863269;1.656283;0.9085304;1.681871;
637949558170931249;1935.841;19;7;2;0.6;1.8;600;3.33333333333333;0.779423;1.05;0.8477846;1.156688;-0.8863271;1.656283;-0.7789715;1.679049;
637949558176922586;1936.44;19;7;2;0.6;1.8;599;3.33889816360601;-0.5785094;2.18944;-0.5381772;2.18736;0.779423;1.05;0.8477846;1.156688;
637949558181913702;1936.94;19;7;2;0.6;1.8;500;4;0.3078185;0.6542768;0.3322819;0.8353515;-0.5785094;2.18944;-0.5381772;2.18736;
637949558195906832;1938.339;19;7;3;0.2;1.4;800;3.75;-0.2394138;0.8422151;-0.2157549;0.9268261;0;2.2;0.007531441;2.166449;
637949558206904399;1939.438;19;7;3;0.2;1.4;1099;2.72975432211101;0.4499513;2.036231;0.4265293;1.952759;-0.2394138;0.8422151;-0.2157549;0.9268261;
637949558215007912;1940.249;19;7;3;0.2;1.4;811;3.69913686806412;-0.6062176;1.15;-0.6114907;1.158093;0.4499513;2.036231;0.4265293;1.952759;
637949558226010369;1941.349;19;7;3;0.2;1.4;1099;2.72975432211101;0.6893654;1.621554;0.6726131;1.608199;-0.6062176;1.15;-0.6114907;1.158093;
637949558240000541;1942.748;19;7;3;0.2;1.4;1400;2.14285714285714;-0.6893655;1.621553;-0.6352626;1.615115;0.6893654;1.621554;0.6726131;1.608199;
637949558254992013;1944.247;19;7;3;0.2;1.4;1499;2.00133422281521;0.6062179;1.15;0.5670526;1.206846;-0.6893655;1.621553;-0.6352626;1.615115;
637949558263988638;1945.147;19;7;3;0.2;1.4;900;3.33333333333333;-0.4499517;2.036231;-0.3931306;2.019547;0.6062179;1.15;0.5670526;1.206846;
637949558272981031;1946.047;19;7;3;0.2;1.4;900;3.33333333333333;0.2394144;0.8422153;0.2470297;0.9296139;-0.4499517;2.036231;-0.3931306;2.019547;
637949558298976836;1948.646;19;7;3.5;0.2;2;1200;2.91666666666667;-0.3420197;0.5603072;-0.2869822;0.5177904;0;2.5;0.003469466;2.474865;
637949558308969068;1949.645;19;7;3.5;0.2;2;999;3.5035035035035;0.6427875;2.266045;0.6304784;2.227491;-0.3420197;0.5603072;-0.2869822;0.5177904;
637949558318961297;1950.644;19;7;3.5;0.2;2;1000;3.5;-0.8660251;0.9999995;-0.8724909;1.005996;0.6427875;2.266045;0.6304784;2.227491;
637949558332064227;1951.955;19;7;3.5;0.2;2;1311;2.6697177726926;0.9848077;1.673648;0.9805247;1.707532;-0.8660251;0.9999995;-0.8724909;1.005996;
637949558348057794;1953.554;19;7;3.5;0.2;2;1599;2.18886804252658;-0.9848078;1.673648;-0.8874622;1.691866;0.9848077;1.673648;0.9805247;1.707532;
637949558372053154;1955.953;19;7;3.5;0.2;2;2399;1.45894122551063;0.8660256;1;0.8164211;1.01703;-0.9848078;1.673648;-0.8874622;1.691866;
637949558386046275;1957.352;19;7;3.5;0.2;2;1399;2.50178699070765;-0.6427882;2.266044;-0.6213914;2.225704;0.8660256;1;0.8164211;1.01703;
637949558396038506;1958.352;19;7;3.5;0.2;2;1000;3.5;0.3420205;0.5603075;0.3013715;0.5308323;-0.6427882;2.266044;-0.6213914;2.225704;
