637951426003057544;286.5385;1;0;4.5;0.1;2.2;1900;2.36842105263158;-0.3762217;0.4663379;-0.3750202;0.4464608;0;2.6;0.01913046;2.556444;
637951426020033554;288.2372;1;0;4.5;0.1;2.2;1699;2.64861683343143;0.7070663;2.342649;0.6651846;2.332061;-0.3762217;0.4663379;-0.3750202;0.4464608;
637951426042028488;290.4363;1;0;4.5;0.1;2.2;2199;2.04638472032742;-0.9526277;0.9499994;-0.9569541;0.9661745;0.7070663;2.342649;0.6651846;2.332061;
637951426068024328;293.035;1;0;4.5;0.1;2.2;2599;1.73143516737207;1.083289;1.691013;1.051734;1.684243;-0.9526277;0.9499994;-0.9569541;0.9661745;
637951426086128402;294.8459;1;0;4.5;0.1;2.2;1811;2.48481501932634;-1.083289;1.691012;-1.054812;1.705526;1.083289;1.691013;1.051734;1.684243;
637951426114104683;297.6441;1;0;4.5;0.1;2.2;2798;1.60829163688349;0.9526281;0.9500003;0.9340094;0.9299089;-1.083289;1.691012;-1.054812;1.705526;
637951426143091192;300.5428;1;0;4.5;0.1;2.2;2899;1.55225939979303;-0.7070671;2.342648;-0.6671641;2.322981;0.9526281;0.9500003;0.9340094;0.9299089;
637951426175078379;303.7415;1;0;4.5;0.1;2.2;3199;1.40668959049703;0.3762226;0.4663382;0.3697014;0.4383876;-0.7070671;2.342648;-0.6671641;2.322981;
637951426193072420;305.5406;1;0;2.5;0.3;1.4;800;3.125;-0.2394138;0.8422151;-0.2195991;0.8953652;0;2.2;0.0502824;2.222043;
637951426202064443;306.4399;1;0;2.5;0.3;1.4;899;2.78086763070078;0.4499513;2.036231;0.4269421;2.006992;-0.2394138;0.8422151;-0.2195991;0.8953652;
637951426217067813;307.9395;1;0;2.5;0.3;1.4;1500;1.66666666666667;-0.6062176;1.15;-0.500555;1.174594;0.4499513;2.036231;0.4269421;2.006992;
637951426227060057;308.9392;1;0;2.5;0.3;1.4;1000;2.5;0.6893654;1.621554;0.7274083;1.584202;-0.6062176;1.15;-0.500555;1.174594;
637951426236062077;309.8392;1;0;2.5;0.3;1.4;900;2.77777777777778;-0.6893655;1.621553;-0.7786511;1.571674;0.6893654;1.621554;0.7274083;1.584202;
637951426245154116;310.749;1;0;2.5;0.3;1.4;910;2.74725274725275;0.6062179;1.15;0.6111498;1.100867;-0.6893655;1.621553;-0.7786511;1.571674;
637951426255156363;311.7489;1;0;2.5;0.3;1.4;1000;2.5;-0.4499517;2.036231;-0.491583;2.058332;0.6062179;1.15;0.6111498;1.100867;
637951426267149059;312.9481;1;0;2.5;0.3;1.4;1199;2.08507089241034;0.2394144;0.8422153;0.2324892;0.7129765;-0.4499517;2.036231;-0.491583;2.058332;
637951426288138831;315.0477;1;0;3;0.2;1.4;1100;2.72727272727273;-0.2394138;0.8422151;-0.2173391;0.8468238;0;2.2;0.04061257;2.145202;
637951426298148102;316.0477;1;0;3;0.2;1.4;1000;3;0.4499513;2.036231;0.5162842;1.98158;-0.2394138;0.8422151;-0.2173391;0.8468238;
637951426308138339;317.0471;1;0;3;0.2;1.4;999;3.003003003003;-0.6062176;1.15;-0.557103;1.114176;0.4499513;2.036231;0.5162842;1.98158;
637951426318140585;318.0469;1;0;3;0.2;1.4;1000;3;0.6893654;1.621554;0.7257987;1.690331;-0.6062176;1.15;-0.557103;1.114176;
637951426325412210;318.7821;1;0;3;0.2;1.4;735;4.08163265306122;-0.6893655;1.621553;-0.6243415;1.56375;0.6893654;1.621554;0.7257987;1.690331;
637951426335464475;319.7868;1;0;3;0.2;1.4;1005;2.98507462686567;0.6062179;1.15;0.6883688;1.126167;-0.6893655;1.621553;-0.6243415;1.56375;
637951426344116417;320.6448;1;0;3;0.2;1.4;858;3.4965034965035;-0.4499517;2.036231;-0.4707289;1.995845;0.6062179;1.15;0.6883688;1.126167;
637951426362218887;322.4548;1;0;3;0.2;1.4;1810;1.65745856353591;0.2394144;0.8422153;0.2164018;0.9066554;-0.4499517;2.036231;-0.4707289;1.995845;
637951426401202529;326.3533;1;0;3.5;0.2;2;1999;1.75087543771886;-0.3420197;0.5603072;-0.3033476;0.5903442;0;2.5;0.03639493;2.41736;
637951426412194183;327.4526;1;0;3.5;0.2;2;1099;3.18471337579618;0.6427875;2.266045;0.6766974;2.240116;-0.3420197;0.5603072;-0.3033476;0.5903442;
637951426423521301;328.593;1;0;3.5;0.2;2;1140;3.07017543859649;-0.8660251;0.9999995;-0.8538941;0.9157243;0.6427875;2.266045;0.6766974;2.240116;
637951426439184819;330.1515;1;0;3.5;0.2;2;1558;2.24646983311938;0.9848077;1.673648;0.9411947;1.666821;-0.8660251;0.9999995;-0.8538941;0.9157243;
637951426450177287;331.2509;1;0;3.5;0.2;2;1099;3.18471337579618;-0.9848078;1.673648;-0.971117;1.680677;0.9848077;1.673648;0.9411947;1.666821;
637951426462169980;332.4507;1;0;3.5;0.2;2;1200;2.91666666666667;0.8660256;1;0.833805;1.062094;-0.9848078;1.673648;-0.971117;1.680677;
637951426471512078;333.3915;1;0;3.5;0.2;2;941;3.71944739638682;-0.6427882;2.266044;-0.7223913;2.241866;0.8660256;1;0.833805;1.062094;
637951426493266964;335.5604;1;0;3.5;0.2;2;2169;1.61364684186261;0.3420205;0.5603075;0.3465781;0.6214266;-0.6427882;2.266044;-0.7223913;2.241866;
637951426510260781;337.259;1;0;1.5;1.1;2;899;1.66852057842047;-0.3420197;0.5603072;-0.1451273;0.8447436;0;2.5;0.02559219;2.281325;
637951426516262134;337.8592;1;0;1.5;1.1;2;600;2.5;0.6427875;2.266045;0.523353;2.118222;-0.3420197;0.5603072;-0.1451273;0.8447436;
637951426523253701;338.5585;1;0;1.5;1.1;2;699;2.14592274678112;-0.8660251;0.9999995;-0.7210677;1.187637;0.6427875;2.266045;0.523353;2.118222;
637951426529305059;339.1637;1;0;1.5;1.1;2;605;2.47933884297521;0.9848077;1.673648;0.7327824;1.685848;-0.8660251;0.9999995;-0.7210677;1.187637;
637951426537246842;339.958;1;0;1.5;1.1;2;794;1.88916876574307;-0.9848078;1.673648;-0.968924;1.778611;0.9848077;1.673648;0.7327824;1.685848;
637951426545238636;340.7576;1;0;1.5;1.1;2;800;1.875;0.8660256;1;0.8187144;1.120593;-0.9848078;1.673648;-0.968924;1.778611;
637951426552240210;341.4573;1;0;1.5;1.1;2;700;2.14285714285714;-0.6427882;2.266044;-0.5474634;2.194263;0.8660256;1;0.8187144;1.120593;
637951426559231782;342.157;1;0;1.5;1.1;2;700;2.14285714285714;0.3420205;0.5603075;0.2817402;0.8143427;-0.6427882;2.266044;-0.5474634;2.194263;
637951426603211657;346.5548;1;0;4;0.1;1.4;2598;1.53964588144727;-0.2394138;0.8422151;-0.2224867;0.8651229;0;2.2;0.0192777;2.205637;
637951426617324827;347.9655;1;0;4;0.1;1.4;1411;2.83486888731396;0.4499513;2.036231;0.4500048;2.065872;-0.2394138;0.8422151;-0.2224867;0.8651229;
637951426639309765;350.1647;1;0;4;0.1;1.4;2199;1.81900864029104;-0.6062176;1.15;-0.5882478;1.160373;0.4499513;2.036231;0.4500048;2.065872;
637951426658304038;352.0638;1;0;4;0.1;1.4;1899;2.10637177461822;0.6893654;1.621554;0.6683423;1.615483;-0.6062176;1.15;-0.5882478;1.160373;
637951426668596348;353.1007;1;0;4;0.1;1.4;1037;3.8572806171649;-0.6893655;1.621553;-0.7185951;1.601572;0.6893654;1.621554;0.6683423;1.615483;
637951426681289195;354.3627;1;0;4;0.1;1.4;1262;3.16957210776545;0.6062179;1.15;0.6338274;1.15603;-0.6893655;1.621553;-0.7185951;1.601572;
637951426691286486;355.3619;1;0;4;0.1;1.4;999;4.004004004004;-0.4499517;2.036231;-0.417886;2.035106;0.6062179;1.15;0.6338274;1.15603;
637951426705279657;356.7614;1;0;4;0.1;1.4;1399;2.85918513223731;0.2394144;0.8422153;0.2269497;0.8844765;-0.4499517;2.036231;-0.417886;2.035106;
637951426719278075;358.161;1;0;2;0.6;1.8;700;2.85714285714286;-0.3078177;0.6542765;-0.1848289;0.8899548;0;2.4;0.05452062;2.236027;
637951426724549259;358.6958;1;0;2;0.6;1.8;535;3.73831775700935;0.5785087;2.18944;0.4721673;1.927347;-0.3078177;0.6542765;-0.1848289;0.8899548;
637951426732270996;359.4604;1;0;2;0.6;1.8;765;2.61437908496732;-0.7794226;1.05;-0.6817058;1.196271;0.5785087;2.18944;0.4721673;1.927347;
637951426738272341;360.0598;1;0;2;0.6;1.8;599;3.33889816360601;0.8863269;1.656283;0.7617934;1.542392;-0.7794226;1.05;-0.6817058;1.196271;
637951426745263914;360.7596;1;0;2;0.6;1.8;700;2.85714285714286;-0.8863271;1.656283;-0.813994;1.678849;0.8863269;1.656283;0.7617934;1.542392;
637951426753254922;361.5592;1;0;2;0.6;1.8;800;2.5;0.779423;1.05;0.7183484;1.130754;-0.8863271;1.656283;-0.813994;1.678849;
637951426760304557;362.264;1;0;2;0.6;1.8;705;2.83687943262411;-0.5785094;2.18944;-0.6165346;2.053769;0.779423;1.05;0.7183484;1.130754;
637951426767364722;362.9698;1;0;2;0.6;1.8;706;2.8328611898017;0.3078185;0.6542768;0.2969268;0.8124959;-0.5785094;2.18944;-0.6165346;2.053769;
637951428587974198;545.0308;1;1;2;0.6;1.8;899;2.22469410456062;-0.3078177;0.6542765;-0.2808042;0.6401571;0;2.4;-0.03673164;2.252795;
637951428596976221;545.9304;1;1;2;0.6;1.8;900;2.22222222222222;0.5785087;2.18944;0.4302433;2.143151;-0.3078177;0.6542765;-0.2808042;0.6401571;
637951428606968464;546.93;1;1;2;0.6;1.8;1000;2;-0.7794226;1.05;-0.5909471;1.202681;0.5785087;2.18944;0.4302433;2.143151;
637951428614960258;547.7296;1;1;2;0.6;1.8;800;2.5;0.8863269;1.656283;0.8033019;1.678803;-0.7794226;1.05;-0.5909471;1.202681;
637951428623962281;548.629;1;1;2;0.6;1.8;899;2.22469410456062;-0.8863271;1.656283;-0.80207;1.719099;0.8863269;1.656283;0.8033019;1.678803;
637951428633014312;549.5344;1;1;2;0.6;1.8;905;2.20994475138122;0.779423;1.05;0.6308433;1.138871;-0.8863271;1.656283;-0.80207;1.719099;
637951428642056346;550.4391;1;1;2;0.6;1.8;905;2.20994475138122;-0.5785094;2.18944;-0.7351503;2.218137;0.779423;1.05;0.6308433;1.138871;
637951428652108603;551.4446;1;1;2;0.6;1.8;1005;1.99004975124378;0.3078185;0.6542768;0.2098;0.8186009;-0.5785094;2.18944;-0.7351503;2.218137;
637951428672063083;553.439;1;1;2.5;0.3;1.4;1000;2.5;-0.2394138;0.8422151;-0.2146811;0.7800201;0;2.2;0.06044568;2.148917;
637951428682065331;554.4391;1;1;2.5;0.3;1.4;1000;2.5;0.4499513;2.036231;0.4390641;2.041217;-0.2394138;0.8422151;-0.2146811;0.7800201;
637951428691037350;555.3374;1;1;2.5;0.3;1.4;898;2.78396436525612;-0.6062176;1.15;-0.5186269;1.128575;0.4499513;2.036231;0.4390641;2.041217;
637951428701029595;556.3367;1;1;2.5;0.3;1.4;999;2.5025025025025;0.6893654;1.621554;0.621062;1.642487;-0.6062176;1.15;-0.5186269;1.128575;
637951428720033861;558.2365;1;1;2.5;0.3;1.4;1900;1.31578947368421;-0.6893655;1.621553;-0.6533431;1.645789;0.6893654;1.621554;0.621062;1.642487;
637951428736017449;559.8351;1;1;2.5;0.3;1.4;1599;1.56347717323327;0.6062179;1.15;0.54681;1.221205;-0.6893655;1.621553;-0.6533431;1.645789;
637951428747009916;560.9346;1;1;2.5;0.3;1.4;1100;2.27272727272727;-0.4499517;2.036231;-0.3910481;1.997189;0.6062179;1.15;0.54681;1.221205;
637951428761003060;562.3338;1;1;2.5;0.3;1.4;1399;1.78699070764832;0.2394144;0.8422153;0.2755473;0.7986997;-0.4499517;2.036231;-0.3910481;1.997189;
637951428797161180;565.9489;1;1;4.5;0.1;2.2;2016;2.23214285714286;-0.3762217;0.4663379;-0.3553369;0.4592576;0;2.6;0.002454436;2.603507;
637951428812098326;567.4428;1;1;4.5;0.1;2.2;1494;3.01204819277108;0.7070663;2.342649;0.6899922;2.313729;-0.3762217;0.4663379;-0.3553369;0.4592576;
637951428826088261;568.8423;1;1;4.5;0.1;2.2;1399;3.21658327376698;-0.9526277;0.9499994;-0.915983;0.9593014;0.7070663;2.342649;0.6899922;2.313729;
637951428844192330;570.6525;1;1;4.5;0.1;2.2;1810;2.48618784530387;1.083289;1.691013;1.073105;1.678988;-0.9526277;0.9499994;-0.915983;0.9593014;
637951428860185919;572.2516;1;1;4.5;0.1;2.2;1599;2.81425891181989;-1.083289;1.691012;-1.050221;1.686284;1.083289;1.691013;1.073105;1.678988;
637951428874179108;573.6511;1;1;4.5;0.1;2.2;1399;3.21658327376698;0.9526281;0.9500003;0.9570069;0.9782211;-1.083289;1.691012;-1.050221;1.686284;
637951428889169823;575.1504;1;1;4.5;0.1;2.2;1499;3.00200133422282;-0.7070671;2.342648;-0.6653136;2.319503;0.9526281;0.9500003;0.9570069;0.9782211;
637951428913165206;577.5494;1;1;4.5;0.1;2.2;2399;1.87578157565652;0.3762226;0.4663382;0.3461373;0.5053477;-0.7070671;2.342648;-0.6653136;2.319503;
637951428975239141;583.7576;1;1;4;0.1;1.4;3099;1.29073894804776;-0.2394138;0.8422151;-0.2352973;0.8598751;0;2.2;-0.002251208;2.185199;
637951429007226335;586.9559;1;1;4;0.1;1.4;3198;1.25078173858662;0.4499513;2.036231;0.4605078;2.03476;-0.2394138;0.8422151;-0.2352973;0.8598751;
637951429024330174;588.6663;1;1;4;0.1;1.4;1710;2.33918128654971;-0.6062176;1.15;-0.6041501;1.128344;0.4499513;2.036231;0.4605078;2.03476;
637951429037323092;589.9659;1;1;4;0.1;1.4;1300;3.07692307692308;0.6893654;1.621554;0.6577802;1.639824;-0.6062176;1.15;-0.6041501;1.128344;
637951429050316017;591.2651;1;1;4;0.1;1.4;1299;3.07929176289453;-0.6893655;1.621553;-0.6682499;1.626134;0.6893654;1.621554;0.6577802;1.639824;
637951429079312524;594.1642;1;1;4;0.1;1.4;2899;1.37978613314936;0.6062179;1.15;0.5698454;1.174753;-0.6893655;1.621553;-0.6682499;1.626134;
637951429107288806;596.9625;1;1;4;0.1;1.4;2798;1.42959256611866;-0.4499517;2.036231;-0.4435984;2.022989;0.6062179;1.15;0.5698454;1.174753;
637951429134284868;599.6616;1;1;4;0.1;1.4;2699;1.48203038162282;0.2394144;0.8422153;0.2240529;0.8484237;-0.4499517;2.036231;-0.4435984;2.022989;
637951429187369845;604.9702;1;1;3.5;0.2;2;2299;1.52240104393214;-0.3420197;0.5603072;-0.3476508;0.6551321;0;2.5;-0.01071783;2.464979;
637951429208364562;607.0694;1;1;3.5;0.2;2;2099;1.66746069556932;0.6427875;2.266045;0.5988697;2.223063;-0.3420197;0.5603072;-0.3476508;0.6551321;
637951429226350571;608.8681;1;1;3.5;0.2;2;1799;1.94552529182879;-0.8660251;0.9999995;-0.8630215;1.026296;0.6427875;2.266045;0.5988697;2.223063;
637951429241346045;610.3675;1;1;3.5;0.2;2;1499;2.33488992661775;0.9848077;1.673648;0.9385337;1.687642;-0.8660251;0.9999995;-0.8630215;1.026296;
637951429251338291;611.3669;1;1;3.5;0.2;2;999;3.5035035035035;-0.9848078;1.673648;-0.9843689;1.640203;0.9848077;1.673648;0.9385337;1.687642;
637951429264331208;612.6666;1;1;3.5;0.2;2;1300;2.69230769230769;0.8660256;1;0.8916486;0.9926837;-0.9848078;1.673648;-0.9843689;1.640203;
637951429274383462;613.6716;1;1;3.5;0.2;2;1005;3.48258706467662;-0.6427882;2.266044;-0.5487497;2.25616;0.8660256;1;0.8916486;0.9926837;
637951429287666447;615.0068;1;1;3.5;0.2;2;1335;2.62172284644195;0.3420205;0.5603075;0.31431;0.6561337;-0.6427882;2.266044;-0.5487497;2.25616;
637951429301429539;616.3761;1;1;1.5;1.1;2;695;2.15827338129496;-0.3420197;0.5603072;-0.256088;0.741781;0;2.5;0.002588404;2.310083;
637951429307510907;616.9761;1;1;1.5;1.1;2;600;2.5;0.6427875;2.266045;0.5821455;2.255624;-0.3420197;0.5603072;-0.256088;0.741781;
637951429313422232;617.5753;1;1;1.5;1.1;2;599;2.50417362270451;-0.8660251;0.9999995;-0.8025669;1.219417;0.6427875;2.266045;0.5821455;2.255624;
637951429320473817;618.2806;1;1;1.5;1.1;2;705;2.12765957446809;0.9848077;1.673648;0.6923481;1.585777;-0.8660251;0.9999995;-0.8025669;1.219417;
637951429327415375;618.9746;1;1;1.5;1.1;2;694;2.16138328530259;-0.9848078;1.673648;-0.9263458;1.73954;0.9848077;1.673648;0.6923481;1.585777;
637951429334416948;619.6746;1;1;1.5;1.1;2;700;2.14285714285714;0.8660256;1;0.641605;1.181829;-0.9848078;1.673648;-0.9263458;1.73954;
637951429341408520;620.374;1;1;1.5;1.1;2;699;2.14592274678112;-0.6427882;2.266044;-0.6789381;2.226017;0.8660256;1;0.641605;1.181829;
637951429357402114;621.9733;1;1;1.5;1.1;2;1599;0.938086303939963;0.3420205;0.5603075;0.2354763;0.7821951;-0.6427882;2.266044;-0.6789381;2.226017;
637951429386398624;624.8729;1;1;3;0.2;1.4;1200;2.5;-0.2394138;0.8422151;-0.250759;0.861348;0;2.2;0.02937328;2.236835;
637951429396500896;625.8831;1;1;3;0.2;1.4;1010;2.97029702970297;0.4499513;2.036231;0.4678917;2.121419;-0.2394138;0.8422151;-0.250759;0.861348;
637951429406553150;626.8884;1;1;3;0.2;1.4;1005;2.98507462686567;-0.6062176;1.15;-0.5361553;1.140819;0.4499513;2.036231;0.4678917;2.121419;
637951429424487180;628.6814;1;1;3;0.2;1.4;1793;1.67317345231456;0.6893654;1.621554;0.7167323;1.616187;-0.6062176;1.15;-0.5361553;1.140819;
637951429435479651;629.7811;1;1;3;0.2;1.4;1100;2.72727272727273;-0.6893655;1.621553;-0.6698152;1.630686;0.6893654;1.621554;0.7167323;1.616187;
637951429445471891;630.7804;1;1;3;0.2;1.4;999;3.003003003003;0.6062179;1.15;0.6493188;1.135791;-0.6893655;1.621553;-0.6698152;1.630686;
637951429451803313;631.4211;1;1;3;0.2;1.4;641;4.6801872074883;-0.4499517;2.036231;-0.4025972;1.949162;0.6062179;1.15;0.6493188;1.135791;
637951429479459527;634.179;1;1;3;0.2;1.4;2758;1.08774474256708;0.2394144;0.8422153;0.2215132;0.892162;-0.4499517;2.036231;-0.4025972;1.949162;
637951430717891045;758.0225;1;2;3.5;0.2;2;1299;2.69438029253272;-0.3420197;0.5603072;-0.3466184;0.5989001;0;2.5;0.03816003;2.461281;
637951430731884187;759.4217;1;2;3.5;0.2;2;1399;2.50178699070765;0.6427875;2.266045;0.666717;2.240192;-0.3420197;0.5603072;-0.3466184;0.5989001;
637951430749878226;761.2212;1;2;3.5;0.2;2;1799;1.94552529182879;-0.8660251;0.9999995;-0.8469045;1.024848;0.6427875;2.266045;0.666717;2.240192;
637951430765981845;762.8312;1;2;3.5;0.2;2;1610;2.17391304347826;0.9848077;1.673648;0.8976432;1.665472;-0.8660251;0.9999995;-0.8469045;1.024848;
637951430775974087;763.8307;1;2;3.5;0.2;2;1000;3.5;-0.9848078;1.673648;-0.9231153;1.656806;0.9848077;1.673648;0.8976432;1.665472;
637951430787966783;765.0302;1;2;3.5;0.2;2;1199;2.91909924937448;0.8660256;1;0.7988441;1.016611;-0.9848078;1.673648;-0.9231153;1.656806;
637951430798969661;766.1296;1;2;3.5;0.2;2;1099;3.18471337579618;-0.6427882;2.266044;-0.6642408;2.287324;0.8660256;1;0.7988441;1.016611;
637951430814963252;767.7291;1;2;3.5;0.2;2;1599;2.18886804252658;0.3420205;0.5603075;0.3337661;0.635053;-0.6427882;2.266044;-0.6642408;2.287324;
637951430842939581;770.5277;1;2;4.5;0.1;2.2;1299;3.46420323325635;-0.3762217;0.4663379;-0.3790234;0.5160345;0;2.6;0.01747786;2.590781;
637951430864930745;772.7268;1;2;4.5;0.1;2.2;2199;2.04638472032742;0.7070663;2.342649;0.6794946;2.336233;-0.3762217;0.4663379;-0.3790234;0.5160345;
637951430895917703;775.8253;1;2;4.5;0.1;2.2;3098;1.45255003227889;-0.9526277;0.9499994;-0.9057353;0.9660873;0.7070663;2.342649;0.6794946;2.336233;
637951430913021548;777.5358;1;2;4.5;0.1;2.2;1711;2.63004091174752;1.083289;1.691013;1.086615;1.684726;-0.9526277;0.9499994;-0.9057353;0.9660873;
637951430932015810;779.4346;1;2;4.5;0.1;2.2;1899;2.3696682464455;-1.083289;1.691012;-1.066422;1.707009;1.083289;1.691013;1.086615;1.684726;
637951430944008505;780.6343;1;2;4.5;0.1;2.2;1200;3.75;0.9526281;0.9500003;0.9032722;0.9548905;-1.083289;1.691012;-1.066422;1.707009;
637951430962052556;782.4384;1;2;4.5;0.1;2.2;1804;2.49445676274945;-0.7070671;2.342648;-0.7074689;2.356943;0.9526281;0.9500003;0.9032722;0.9548905;
637951430971994789;783.4329;1;2;4.5;0.1;2.2;995;4.52261306532663;0.3762226;0.4663382;0.359094;0.504182;-0.7070671;2.342648;-0.7074689;2.356943;
637951430996980402;785.9315;1;2;2;0.6;1.8;1599;1.25078173858662;-0.3078177;0.6542765;-0.2527301;0.8722523;0;2.4;-0.00827197;2.342532;
637951431012083794;787.4421;1;2;2;0.6;1.8;1511;1.32362673726009;0.5785087;2.18944;0.3393043;2.119745;-0.3078177;0.6542765;-0.2527301;0.8722523;
637951431027087164;788.9415;1;2;2;0.6;1.8;1499;1.33422281521014;-0.7794226;1.05;-0.5913095;1.193932;0.5785087;2.18944;0.3393043;2.119745;
637951431036079181;789.8411;1;2;2;0.6;1.8;900;2.22222222222222;0.8863269;1.656283;0.7684175;1.694535;-0.7794226;1.05;-0.5913095;1.193932;
637951431045081206;790.7409;1;2;2;0.6;1.8;900;2.22222222222222;-0.8863271;1.656283;-0.6751572;1.679257;0.8863269;1.656283;0.7684175;1.694535;
637951431053072993;791.5408;1;2;2;0.6;1.8;800;2.5;0.779423;1.05;0.6471777;1.149612;-0.8863271;1.656283;-0.6751572;1.679257;
637951431061064794;792.3403;1;2;2;0.6;1.8;799;2.50312891113892;-0.5785094;2.18944;-0.5858618;2.057935;0.779423;1.05;0.6471777;1.149612;
637951431069066592;793.1399;1;2;2;0.6;1.8;800;2.5;0.3078185;0.6542768;0.3090948;0.7658131;-0.5785094;2.18944;-0.5858618;2.057935;
637951431115146944;797.7485;1;2;4;0.1;1.4;2610;1.53256704980843;-0.2394138;0.8422151;-0.2031298;0.8615386;0;2.2;0.01380232;2.178068;
637951431125149188;798.7482;1;2;4;0.1;1.4;1000;4;0.4499513;2.036231;0.4617062;2.074778;-0.2394138;0.8422151;-0.2031298;0.8615386;
637951431143143233;800.5471;1;2;4;0.1;1.4;1799;2.22345747637576;-0.6062176;1.15;-0.6244423;1.18988;0.4499513;2.036231;0.4617062;2.074778;
637951431162129024;802.4463;1;2;4;0.1;1.4;1899;2.10637177461822;0.6893654;1.621554;0.6781811;1.658211;-0.6062176;1.15;-0.6244423;1.18988;
637951431188124862;805.0461;1;2;4;0.1;1.4;2600;1.53846153846154;-0.6893655;1.621553;-0.681667;1.621333;0.6893654;1.621554;0.6781811;1.658211;
637951431225208343;808.7546;1;2;4;0.1;1.4;3708;1.07874865156419;0.6062179;1.15;0.5759502;1.158433;-0.6893655;1.621553;-0.681667;1.621333;
637951431252204407;811.4535;1;2;4;0.1;1.4;2699;1.48203038162282;-0.4499517;2.036231;-0.4643487;2.016604;0.6062179;1.15;0.5759502;1.158433;
637951431285221822;814.7556;1;2;4;0.1;1.4;3302;1.21138703815869;0.2394144;0.8422153;0.2176595;0.8498862;-0.4499517;2.036231;-0.4643487;2.016604;
637951431302185633;816.4513;1;2;3;0.2;1.4;799;3.75469336670839;-0.2394138;0.8422151;-0.1976915;0.7938846;0;2.2;0.0007883767;2.133638;
637951431312287902;817.4619;1;2;3;0.2;1.4;1010;2.97029702970297;0.4499513;2.036231;0.4160249;2.02374;-0.2394138;0.8422151;-0.1976915;0.7938846;
637951431320279698;818.2615;1;2;3;0.2;1.4;800;3.75;-0.6062176;1.15;-0.5817387;1.126185;0.4499513;2.036231;0.4160249;2.02374;
637951431335273066;819.7606;1;2;3;0.2;1.4;1499;2.00133422281521;0.6893654;1.621554;0.7390083;1.596562;-0.6062176;1.15;-0.5817387;1.126185;
637951431345275313;820.7604;1;2;3;0.2;1.4;1000;3;-0.6893655;1.621553;-0.7269916;1.638783;0.6893654;1.621554;0.7390083;1.596562;
637951431355267556;821.7598;1;2;3;0.2;1.4;999;3.003003003003;0.6062179;1.15;0.5966353;1.122645;-0.6893655;1.621553;-0.7269916;1.638783;
637951431364259575;822.6594;1;2;3;0.2;1.4;900;3.33333333333333;-0.4499517;2.036231;-0.4381023;2.093906;0.6062179;1.15;0.5966353;1.122645;
637951431378252721;824.0586;1;2;3;0.2;1.4;1399;2.14438884917798;0.2394144;0.8422153;0.2068035;0.8977687;-0.4499517;2.036231;-0.4381023;2.093906;
637951431389245191;825.1583;1;2;1.5;1.1;2;494;3.03643724696356;-0.3420197;0.5603072;-0.1375813;0.9940323;0;2.5;0.04946605;2.374909;
637951431396246761;825.8582;1;2;1.5;1.1;2;700;2.14285714285714;0.6427875;2.266045;0.3558367;2.087358;-0.3420197;0.5603072;-0.1375813;0.9940323;
637951431400248062;826.2579;1;2;1.5;1.1;2;400;3.75;-0.8660251;0.9999995;-0.7118522;1.379662;0.6427875;2.266045;0.3558367;2.087358;
637951431413243613;827.5573;1;2;1.5;1.1;2;1299;1.15473441108545;0.9848077;1.673648;0.5033823;1.685105;-0.8660251;0.9999995;-0.7118522;1.379662;
637951431419375055;828.171;1;2;1.5;1.1;2;614;2.44299674267101;-0.9848078;1.673648;-0.7714921;1.746358;0.9848077;1.673648;0.5033823;1.685105;
637951431425236484;828.7568;1;2;1.5;1.1;2;586;2.55972696245734;0.8660256;1;0.6346766;1.28931;-0.9848078;1.673648;-0.7714921;1.746358;
637951431431227869;829.3564;1;2;1.5;1.1;2;599;2.50417362270451;-0.6427882;2.266044;-0.5508649;1.971411;0.8660256;1;0.6346766;1.28931;
637951431437229225;829.9558;1;2;1.5;1.1;2;599;2.50417362270451;0.3420205;0.5603075;0.2493217;0.9466853;-0.6427882;2.266044;-0.5508649;1.971411;
637951431451332394;831.3667;1;2;2.5;0.3;1.4;811;3.0826140567201;-0.2394138;0.8422151;-0.1704538;0.9435182;0;2.2;-0.03360628;2.159704;
637951431457333741;831.9664;1;2;2.5;0.3;1.4;600;4.16666666666667;0.4499513;2.036231;0.4456085;1.98135;-0.2394138;0.8422151;-0.1704538;0.9435182;
637951431476318004;833.8654;1;2;2.5;0.3;1.4;1899;1.31648235913639;-0.6062176;1.15;-0.5125914;1.241125;0.4499513;2.036231;0.4456085;1.98135;
637951431485320025;834.765;1;2;2.5;0.3;1.4;899;2.78086763070078;0.6893654;1.621554;0.6100715;1.599082;-0.6062176;1.15;-0.5125914;1.241125;
637951431497602782;836.0007;1;2;2.5;0.3;1.4;1236;2.02265372168285;-0.6893655;1.621553;-0.5500591;1.666834;0.6893654;1.621554;0.6100715;1.599082;
637951431507595025;837.0005;1;2;2.5;0.3;1.4;1000;2.5;0.6062179;1.15;0.4619352;1.17437;-0.6893655;1.621553;-0.5500591;1.666834;
637951431529299904;839.1631;1;2;2.5;0.3;1.4;2163;1.15580212667591;-0.4499517;2.036231;-0.3464962;2.020299;0.6062179;1.15;0.4619352;1.17437;
637951431540292371;840.2626;1;2;2.5;0.3;1.4;1100;2.27272727272727;0.2394144;0.8422153;0.140249;0.9541153;-0.4499517;2.036231;-0.3464962;2.020299;
637951432605694669;946.803;1;3;1.5;1.1;2;600;2.5;-0.3420197;0.5603072;-0.367956;0.7025837;0;2.5;0.09555392;2.088533;
637951432610685787;947.3023;1;3;1.5;1.1;2;499;3.0060120240481;0.6427875;2.266045;0.393244;1.975477;-0.3420197;0.5603072;-0.367956;0.7025837;
637951432620688034;948.3019;1;3;1.5;1.1;2;1000;1.5;-0.8660251;0.9999995;-0.7178288;1.214463;0.6427875;2.266045;0.393244;1.975477;
637951432627799631;949.0131;1;3;1.5;1.1;2;711;2.10970464135021;0.9848077;1.673648;0.7296373;1.662781;-0.8660251;0.9999995;-0.7178288;1.214463;
637951432632690728;949.5021;1;3;1.5;1.1;2;489;3.06748466257669;-0.9848078;1.673648;-0.7810883;1.599798;0.9848077;1.673648;0.7296373;1.662781;
637951432638682075;950.1014;1;3;1.5;1.1;2;599;2.50417362270451;0.8660256;1;0.4365846;1.249586;-0.9848078;1.673648;-0.7810883;1.599798;
637951432644683422;950.7012;1;3;1.5;1.1;2;600;2.5;-0.6427882;2.266044;-0.5637663;1.960207;0.8660256;1;0.4365846;1.249586;
637951432649674548;951.2006;1;3;1.5;1.1;2;499;3.0060120240481;0.3420205;0.5603075;0.1003533;1.015633;-0.6427882;2.266044;-0.5637663;1.960207;
637951432662667460;952.5002;1;3;2;0.6;1.8;599;3.33889816360601;-0.3078177;0.6542765;-0.2381091;0.8097564;0;2.4;-0.002207726;2.303488;
637951432669669033;953.1999;1;3;2;0.6;1.8;700;2.85714285714286;0.5785087;2.18944;0.6217487;2.26812;-0.3078177;0.6542765;-0.2381091;0.8097564;
637951432675710390;953.8047;1;3;2;0.6;1.8;605;3.30578512396694;-0.7794226;1.05;-0.644553;1.144355;0.5785087;2.18944;0.6217487;2.26812;
637951432682711960;954.5043;1;3;2;0.6;1.8;700;2.85714285714286;0.8863269;1.656283;0.7127795;1.664366;-0.7794226;1.05;-0.644553;1.144355;
637951432688763323;955.11;1;3;2;0.6;1.8;606;3.3003300330033;-0.8863271;1.656283;-0.850738;1.531954;0.8863269;1.656283;0.7127795;1.664366;
637951432695764895;955.8098;1;3;2;0.6;1.8;700;2.85714285714286;0.779423;1.05;0.6805409;1.238464;-0.8863271;1.656283;-0.850738;1.531954;
637951432701766244;956.4094;1;3;2;0.6;1.8;600;3.33333333333333;-0.5785094;2.18944;-0.5898151;1.99832;0.779423;1.05;0.6805409;1.238464;
637951432707757588;957.0093;1;3;2;0.6;1.8;600;3.33333333333333;0.3078185;0.6542768;0.3335862;0.7912899;-0.5785094;2.18944;-0.5898151;1.99832;
637951432729752528;959.2084;1;3;3.5;0.2;2;1500;2.33333333333333;-0.3420197;0.5603072;-0.3327354;0.6325302;0;2.5;0.05671141;2.438005;
637951432736744098;959.9079;1;3;3.5;0.2;2;700;5;0.6427875;2.266045;0.6053559;2.255401;-0.3420197;0.5603072;-0.3327354;0.6325302;
637951432762729936;962.5067;1;3;3.5;0.2;2;2599;1.34667179684494;-0.8660251;0.9999995;-0.8437939;1.070246;0.6427875;2.266045;0.6053559;2.255401;
637951432784725642;964.7057;1;3;3.5;0.2;2;2199;1.59163256025466;0.9848077;1.673648;0.9595276;1.728998;-0.8660251;0.9999995;-0.8437939;1.070246;
637951432798713547;966.105;1;3;3.5;0.2;2;1399;2.50178699070765;-0.9848078;1.673648;-0.9690582;1.631692;0.9848077;1.673648;0.9595276;1.728998;
637951432816707593;967.9041;1;3;3.5;0.2;2;1799;1.94552529182879;0.8660256;1;0.8486999;1.055556;-0.9848078;1.673648;-0.9690582;1.631692;
637951432830700729;969.3035;1;3;3.5;0.2;2;1399;2.50178699070765;-0.6427882;2.266044;-0.6155557;2.294973;0.8660256;1;0.8486999;1.055556;
637951432873800411;973.6128;1;3;3.5;0.2;2;4309;0.812253423067997;0.3420205;0.5603075;0.2881511;0.6340684;-0.6427882;2.266044;-0.6155557;2.294973;
637951432901776696;976.4114;1;3;2.5;0.3;1.4;1899;1.31648235913639;-0.2394138;0.8422151;-0.2330151;0.915045;0;2.2;-0.09630812;2.229455;
637951432911778947;977.4109;1;3;2.5;0.3;1.4;1000;2.5;0.4499513;2.036231;0.3525405;2.017941;-0.2394138;0.8422151;-0.2330151;0.915045;
637951432926772309;978.9105;1;3;2.5;0.3;1.4;1500;1.66666666666667;-0.6062176;1.15;-0.536726;1.205546;0.4499513;2.036231;0.3525405;2.017941;
637951432953758373;981.6089;1;3;2.5;0.3;1.4;2698;0.926612305411416;0.6893654;1.621554;0.6823387;1.67322;-0.6062176;1.15;-0.536726;1.205546;
637951432964760844;982.7089;1;3;2.5;0.3;1.4;1100;2.27272727272727;-0.6893655;1.621553;-0.7232493;1.663924;0.6893654;1.621554;0.6823387;1.67322;
637951432981744657;984.4078;1;3;2.5;0.3;1.4;1699;1.47145379635079;0.6062179;1.15;0.4692147;1.187022;-0.6893655;1.621553;-0.7232493;1.663924;
637951432995847827;985.818;1;3;2.5;0.3;1.4;1410;1.77304964539007;-0.4499517;2.036231;-0.3596156;1.995665;0.6062179;1.15;0.4692147;1.187022;
637951433007850522;987.0176;1;3;2.5;0.3;1.4;1200;2.08333333333333;0.2394144;0.8422153;0.2035529;0.9853522;-0.4499517;2.036231;-0.3596156;1.995665;
637951433037837261;990.0165;1;3;4.5;0.1;2.2;1800;2.5;-0.3762217;0.4663379;-0.3581065;0.5024683;0;2.6;-0.005593437;2.609876;
637951433052820619;991.5157;1;3;4.5;0.1;2.2;1499;3.00200133422282;0.7070663;2.342649;0.6878168;2.334354;-0.3762217;0.4663379;-0.3581065;0.5024683;
637951433071814887;993.415;1;3;4.5;0.1;2.2;1899;2.3696682464455;-0.9526277;0.9499994;-0.9694477;0.9865035;0.7070663;2.342649;0.6878168;2.334354;
637951433099797758;996.2134;1;3;4.5;0.1;2.2;2798;1.60829163688349;1.083289;1.691013;1.06275;1.659774;-0.9526277;0.9499994;-0.9694477;0.9865035;
637951433127794896;999.0123;1;3;4.5;0.1;2.2;2799;1.60771704180064;-1.083289;1.691012;-1.036401;1.689809;1.083289;1.691013;1.06275;1.659774;
637951433146889187;1000.922;1;3;4.5;0.1;2.2;1910;2.35602094240838;0.9526281;0.9500003;0.9038573;0.9550345;-1.083289;1.691012;-1.036401;1.689809;
637951433173885249;1003.621;1;3;4.5;0.1;2.2;2699;1.66728417932568;-0.7070671;2.342648;-0.6819142;2.331476;0.9526281;0.9500003;0.9038573;0.9550345;
637951433192869512;1005.52;1;3;4.5;0.1;2.2;1899;2.3696682464455;0.3762226;0.4663382;0.3557748;0.4737554;-0.7070671;2.342648;-0.6819142;2.331476;
637951433226857147;1008.919;1;3;4;0.1;1.4;2099;1.90566936636494;-0.2394138;0.8422151;-0.2285054;0.8534403;0;2.2;0.01783004;2.167805;
637951433239850065;1010.218;1;3;4;0.1;1.4;1299;3.07929176289453;0.4499513;2.036231;0.4009406;2.028037;-0.2394138;0.8422151;-0.2285054;0.8534403;
637951433252842986;1011.518;1;3;4;0.1;1.4;1299;3.07929176289453;-0.6062176;1.15;-0.5908549;1.12272;0.4499513;2.036231;0.4009406;2.028037;
637951433264835675;1012.717;1;3;4;0.1;1.4;1199;3.33611342785655;0.6893654;1.621554;0.6456687;1.635151;-0.6062176;1.15;-0.5908549;1.12272;
637951433283829943;1014.616;1;3;4;0.1;1.4;1899;2.10637177461822;-0.6893655;1.621553;-0.6605699;1.618977;0.6893654;1.621554;0.6456687;1.635151;
637951433301823983;1016.416;1;3;4;0.1;1.4;1799;2.22345747637576;0.6062179;1.15;0.5986121;1.186359;-0.6893655;1.621553;-0.6605699;1.618977;
637951433313926703;1017.626;1;3;4;0.1;1.4;1210;3.30578512396694;-0.4499517;2.036231;-0.4136194;2.026371;0.6062179;1.15;0.5986121;1.186359;
637951433344923665;1020.725;1;3;4;0.1;1.4;3099;1.29073894804776;0.2394144;0.8422153;0.2445871;0.8520454;-0.4499517;2.036231;-0.4136194;2.026371;
637951433382892195;1024.523;1;3;3;0.2;1.4;2399;1.25052105043768;-0.2394138;0.8422151;-0.1978559;0.8910534;0;2.2;0.009788366;2.115125;
637951433395885108;1025.822;1;3;3;0.2;1.4;1299;2.3094688221709;0.4499513;2.036231;0.462739;2.085864;-0.2394138;0.8422151;-0.1978559;0.8910534;
637951433408884858;1027.122;1;3;3;0.2;1.4;1299;2.3094688221709;-0.6062176;1.15;-0.589021;1.181881;0.4499513;2.036231;0.462739;2.085864;
637951433423874205;1028.621;1;3;3;0.2;1.4;1500;2;0.6893654;1.621554;0.6412888;1.639725;-0.6062176;1.15;-0.589021;1.181881;
637951433433866450;1029.62;1;3;3;0.2;1.4;999;3.003003003003;-0.6893655;1.621553;-0.6632649;1.666866;0.6893654;1.621554;0.6412888;1.639725;
637951433452980745;1031.531;1;3;3;0.2;1.4;1910;1.57068062827225;0.6062179;1.15;0.6739669;1.170995;-0.6893655;1.621553;-0.6632649;1.666866;
637951433473964002;1033.63;1;3;3;0.2;1.4;2099;1.4292520247737;-0.4499517;2.036231;-0.5074526;2.031404;0.6062179;1.15;0.6739669;1.170995;
637951433493962555;1035.629;1;3;3;0.2;1.4;1999;1.50075037518759;0.2394144;0.8422153;0.1961795;0.8958112;-0.4499517;2.036231;-0.5074526;2.031404;
637951434769489345;1163.182;1;4;2.5;0.3;1.4;695;3.59712230215827;-0.2394138;0.8422151;-0.2521749;0.8440584;0;2.2;0.08598535;2.122412;
637951434777591169;1163.993;1;4;2.5;0.3;1.4;811;3.0826140567201;0.4499513;2.036231;0.565322;2.076646;-0.2394138;0.8422151;-0.2521749;0.8440584;
637951434784592741;1164.692;1;4;2.5;0.3;1.4;700;3.57142857142857;-0.6062176;1.15;-0.6245182;1.15428;0.4499513;2.036231;0.565322;2.076646;
637951434801576553;1166.391;1;4;2.5;0.3;1.4;1699;1.47145379635079;0.6893654;1.621554;0.6819875;1.651162;-0.6062176;1.15;-0.6245182;1.15428;
637951434809578354;1167.191;1;4;2.5;0.3;1.4;800;3.125;-0.6893655;1.621553;-0.6103601;1.628994;0.6893654;1.621554;0.6819875;1.651162;
637951434817570148;1167.991;1;4;2.5;0.3;1.4;800;3.125;0.6062179;1.15;0.5332336;1.191302;-0.6893655;1.621553;-0.6103601;1.628994;
637951434826622179;1168.895;1;4;2.5;0.3;1.4;904;2.76548672566372;-0.4499517;2.036231;-0.3906702;2.016421;0.6062179;1.15;0.5332336;1.191302;
637951434835564192;1169.79;1;4;2.5;0.3;1.4;895;2.79329608938547;0.2394144;0.8422153;0.2033107;0.9255791;-0.4499517;2.036231;-0.3906702;2.016421;
637951434864550698;1172.689;1;4;3;0.2;1.4;1999;1.50075037518759;-0.2394138;0.8422151;-0.2507688;0.8878784;0;2.2;-0.02955784;2.211568;
637951434872662523;1173.499;1;4;3;0.2;1.4;810;3.7037037037037;0.4499513;2.036231;0.4072773;1.992221;-0.2394138;0.8422151;-0.2507688;0.8878784;
637951434881664541;1174.399;1;4;3;0.2;1.4;900;3.33333333333333;-0.6062176;1.15;-0.5108854;1.17005;0.4499513;2.036231;0.4072773;1.992221;
637951434899648581;1176.198;1;4;3;0.2;1.4;1799;1.66759310728182;0.6893654;1.621554;0.64197;1.583664;-0.6062176;1.15;-0.5108854;1.17005;
637951434910691065;1177.303;1;4;3;0.2;1.4;1105;2.71493212669683;-0.6893655;1.621553;-0.6077229;1.63854;0.6893654;1.621554;0.64197;1.583664;
637951434920643296;1178.297;1;4;3;0.2;1.4;995;3.01507537688442;0.6062179;1.15;0.6485695;1.14524;-0.6893655;1.621553;-0.6077229;1.63854;
637951434930635540;1179.297;1;4;3;0.2;1.4;999;3.003003003003;-0.4499517;2.036231;-0.4481954;2.004931;0.6062179;1.15;0.6485695;1.14524;
637951434942628234;1180.496;1;4;3;0.2;1.4;1200;2.5;0.2394144;0.8422153;0.1793048;0.8627664;-0.4499517;2.036231;-0.4481954;2.004931;
637951434984719290;1184.705;1;4;4.5;0.1;2.2;3110;1.44694533762058;-0.3762217;0.4663379;-0.3814172;0.4810668;0;2.6;-0.006259101;2.61287;
637951434998712434;1186.105;1;4;4.5;0.1;2.2;1400;3.21428571428571;0.7070663;2.342649;0.6936858;2.321163;-0.3762217;0.4663379;-0.3814172;0.4810668;
637951435018706918;1188.104;1;4;4.5;0.1;2.2;1999;2.25112556278139;-0.9526277;0.9499994;-0.9193894;0.9546067;0.7070663;2.342649;0.6936858;2.321163;
637951435029944071;1189.234;1;4;4.5;0.1;2.2;1131;3.97877984084881;1.083289;1.691013;1.033688;1.686862;-0.9526277;0.9499994;-0.9193894;0.9546067;
637951435040054837;1190.246;1;4;4.5;0.1;2.2;1011;4.45103857566766;-1.083289;1.691012;-1.044885;1.659982;1.083289;1.691013;1.033688;1.686862;
637951435064793795;1192.713;1;4;4.5;0.1;2.2;2467;1.82407782732063;0.9526281;0.9500003;0.9419024;0.9628779;-1.083289;1.691012;-1.044885;1.659982;
637951435084838304;1194.717;1;4;4.5;0.1;2.2;2004;2.24550898203593;-0.7070671;2.342648;-0.7329879;2.332019;0.9526281;0.9500003;0.9419024;0.9628779;
637951435100831894;1196.317;1;4;4.5;0.1;2.2;1599;2.81425891181989;0.3762226;0.4663382;0.3518543;0.4655519;-0.7070671;2.342648;-0.7329879;2.332019;
637951435124817276;1198.715;1;4;4;0.1;1.4;1204;3.32225913621262;-0.2394138;0.8422151;-0.2325475;0.8482524;0;2.2;0.01593985;2.185461;
637951435137760186;1200.01;1;4;4;0.1;1.4;1295;3.08880308880309;0.4499513;2.036231;0.4585675;2.043051;-0.2394138;0.8422151;-0.2325475;0.8482524;
637951435148802664;1201.114;1;4;4;0.1;1.4;1104;3.6231884057971;-0.6062176;1.15;-0.6193244;1.161237;0.4499513;2.036231;0.4585675;2.043051;
637951435158744898;1202.108;1;4;4;0.1;1.4;994;4.02414486921529;0.6893654;1.621554;0.652688;1.654081;-0.6062176;1.15;-0.6193244;1.161237;
637951435172808060;1203.514;1;4;4;0.1;1.4;1406;2.84495021337127;-0.6893655;1.621553;-0.670783;1.591841;0.6893654;1.621554;0.652688;1.654081;
637951435184740741;1204.707;1;4;4;0.1;1.4;1194;3.3500837520938;0.6062179;1.15;0.5877886;1.141678;-0.6893655;1.621553;-0.670783;1.591841;
637951435191742311;1205.407;1;4;4;0.1;1.4;700;5.71428571428571;-0.4499517;2.036231;-0.4737315;2.026973;0.6062179;1.15;0.5877886;1.141678;
637951435216837949;1207.917;1;4;4;0.1;1.4;2510;1.59362549800797;0.2394144;0.8422153;0.224469;0.8815536;-0.4499517;2.036231;-0.4737315;2.026973;
637951435246824682;1210.915;1;4;3.5;0.2;2;2199;1.59163256025466;-0.3420197;0.5603072;-0.3101273;0.6054773;0;2.5;-0.007058231;2.513823;
637951435261828053;1212.416;1;4;3.5;0.2;2;1500;2.33333333333333;0.6427875;2.266045;0.6640295;2.250651;-0.3420197;0.5603072;-0.3101273;0.6054773;
637951435276811416;1213.914;1;4;3.5;0.2;2;1499;2.33488992661775;-0.8660251;0.9999995;-0.771789;0.9799064;0.6427875;2.266045;0.6640295;2.250651;
637951435287923910;1215.025;1;4;3.5;0.2;2;1111;3.15031503150315;0.9848077;1.673648;0.8848699;1.676737;-0.8660251;0.9999995;-0.771789;0.9799064;
637951435298796354;1216.113;1;4;3.5;0.2;2;1088;3.21691176470588;-0.9848078;1.673648;-0.9212779;1.713035;0.9848077;1.673648;0.8848699;1.676737;
637951435340890385;1220.323;1;4;3.5;0.2;2;4209;0.831551437396056;0.8660256;1;0.8247094;1.061092;-0.9848078;1.673648;-0.9212779;1.713035;
637951435357934205;1222.027;1;4;3.5;0.2;2;1704;2.05399061032864;-0.6427882;2.266044;-0.5809915;2.246806;0.8660256;1;0.8247094;1.061092;
637951435367214367;1222.962;1;4;3.5;0.2;2;936;3.73931623931624;0.3420205;0.5603075;0.2813808;0.6388139;-0.6427882;2.266044;-0.5809915;2.246806;
637951435381875610;1224.421;1;4;2;0.6;1.8;700;2.85714285714286;-0.3078177;0.6542765;-0.2872509;0.7194643;0;2.4;0.0612776;2.443791;
637951435386866230;1224.92;1;4;2;0.6;1.8;500;4;0.5785087;2.18944;0.5200839;2.083969;-0.3078177;0.6542765;-0.2872509;0.7194643;
637951435393871964;1225.62;1;4;2;0.6;1.8;700;2.85714285714286;-0.7794226;1.05;-0.7432805;1.105085;0.5785087;2.18944;0.5200839;2.083969;
637951435398855903;1226.12;1;4;2;0.6;1.8;500;4;0.8863269;1.656283;0.7654922;1.554817;-0.7794226;1.05;-0.7432805;1.105085;
637951435404867275;1226.72;1;4;2;0.6;1.8;600;3.33333333333333;-0.8863271;1.656283;-0.8149954;1.694619;0.8863269;1.656283;0.7654922;1.554817;
637951435411908856;1227.424;1;4;2;0.6;1.8;704;2.84090909090909;0.779423;1.05;0.7763247;1.065588;-0.8863271;1.656283;-0.8149954;1.694619;
637951435416249833;1227.866;1;4;2;0.6;1.8;442;4.52488687782806;-0.5785094;2.18944;-0.4385736;1.946959;0.779423;1.05;0.7763247;1.065588;
637951435430963137;1229.329;1;4;2;0.6;1.8;1464;1.36612021857923;0.3078185;0.6542768;0.1551083;0.8864604;-0.5785094;2.18944;-0.4385736;1.946959;
637951435448947177;1231.128;1;4;1.5;1.1;2;1399;1.07219442458899;-0.3420197;0.5603072;-0.1414602;1.071858;0;2.5;-0.03443127;2.192376;
637951435453958300;1231.629;1;4;1.5;1.1;2;500;3;0.6427875;2.266045;0.4137668;2.059229;-0.3420197;0.5603072;-0.1414602;1.071858;
637951435459949646;1232.228;1;4;1.5;1.1;2;599;2.50417362270451;-0.8660251;0.9999995;-0.5556349;1.319546;0.6427875;2.266045;0.4137668;2.059229;
637951435466941210;1232.928;1;4;1.5;1.1;2;699;2.14592274678112;0.9848077;1.673648;0.5644063;1.625841;-0.8660251;0.9999995;-0.5556349;1.319546;
637951435472992577;1233.533;1;4;1.5;1.1;2;605;2.47933884297521;-0.9848078;1.673648;-0.8112574;1.760421;0.9848077;1.673648;0.5644063;1.625841;
637951435478943912;1234.127;1;4;1.5;1.1;2;594;2.52525252525253;0.8660256;1;0.6451211;1.243401;-0.9848078;1.673648;-0.8112574;1.760421;
637951435484935257;1234.727;1;4;1.5;1.1;2;599;2.50417362270451;-0.6427882;2.266044;-0.423979;1.983536;0.8660256;1;0.6451211;1.243401;
637951435490936601;1235.327;1;4;1.5;1.1;2;600;2.5;0.3420205;0.5603075;0.1992294;0.9222835;-0.6427882;2.266044;-0.423979;1.983536;
637951436113208356;1297.554;1;5;4.5;0.1;2.2;1700;2.64705882352941;-0.3762217;0.4663379;-0.3612983;0.4801793;0;2.6;-0.003782746;2.576488;
637951436123200600;1298.553;1;5;4.5;0.1;2.2;1000;4.5;0.7070663;2.342649;0.6884592;2.342998;-0.3762217;0.4663379;-0.3612983;0.4801793;
637951436137533816;1299.994;1;5;4.5;0.1;2.2;1440;3.125;-0.9526277;0.9499994;-0.9830003;0.9739245;0.7070663;2.342649;0.6884592;2.342998;
637951436188225210;1305.056;1;5;4.5;0.1;2.2;5062;0.888976689055709;1.083289;1.691013;1.069513;1.688739;-0.9526277;0.9499994;-0.9830003;0.9739245;
637951436203168562;1306.55;1;5;4.5;0.1;2.2;1494;3.01204819277108;-1.083289;1.691012;-1.066645;1.688086;1.083289;1.691013;1.069513;1.688739;
637951436221152604;1308.349;1;5;4.5;0.1;2.2;1799;2.50138966092273;0.9526281;0.9500003;0.9308824;0.9512872;-1.083289;1.691012;-1.066645;1.688086;
637951436243257567;1310.559;1;5;4.5;0.1;2.2;2210;2.03619909502262;-0.7070671;2.342648;-0.7077928;2.340717;0.9526281;0.9500003;0.9308824;0.9512872;
637951436267242954;1312.958;1;5;4.5;0.1;2.2;2399;1.87578157565652;0.3762226;0.4663382;0.3928511;0.4507878;-0.7070671;2.342648;-0.7077928;2.340717;
637951436278185413;1314.052;1;5;1.5;1.1;2;400;3.75;-0.3420197;0.5603072;-0.2661122;0.8667458;0;2.5;0.05364634;2.326982;
637951436300230364;1316.256;1;5;1.5;1.1;2;2205;0.680272108843537;0.6427875;2.266045;0.3545512;2.088038;-0.3420197;0.5603072;-0.2661122;0.8667458;
637951436311222831;1317.356;1;5;1.5;1.1;2;1099;1.36487716105551;-0.8660251;0.9999995;-0.7045749;1.292067;0.6427875;2.266045;0.3545512;2.088038;
637951436318224403;1318.055;1;5;1.5;1.1;2;699;2.14592274678112;0.9848077;1.673648;0.5735981;1.701322;-0.8660251;0.9999995;-0.7045749;1.292067;
637951436323215526;1318.555;1;5;1.5;1.1;2;500;3;-0.9848078;1.673648;-0.6269284;1.736519;0.9848077;1.673648;0.5735981;1.701322;
637951436329216872;1319.155;1;5;1.5;1.1;2;600;2.5;0.8660256;1;0.5560728;1.316505;-0.9848078;1.673648;-0.6269284;1.736519;
637951436334217998;1319.655;1;5;1.5;1.1;2;500;3;-0.6427882;2.266044;-0.6598753;2.085842;0.8660256;1;0.5560728;1.316505;
637951436339209116;1320.155;1;5;1.5;1.1;2;499;3.0060120240481;0.3420205;0.5603075;0.4696937;0.8104177;-0.6427882;2.266044;-0.6598753;2.085842;
637951436359203610;1322.154;1;5;3;0.2;1.4;899;3.33704115684093;-0.2394138;0.8422151;-0.2225729;0.8949343;0;2.2;0.03002664;2.152485;
637951436366205183;1322.854;1;5;3;0.2;1.4;700;4.28571428571429;0.4499513;2.036231;0.4222279;2.091026;-0.2394138;0.8422151;-0.2225729;0.8949343;
637951436375197200;1323.753;1;5;3;0.2;1.4;899;3.33704115684093;-0.6062176;1.15;-0.5959342;1.149144;0.4499513;2.036231;0.4222279;2.091026;
637951436387197471;1324.953;1;5;3;0.2;1.4;1200;2.5;0.6893654;1.621554;0.6377668;1.607126;-0.6062176;1.15;-0.5959342;1.149144;
637951436397307516;1325.963;1;5;3;0.2;1.4;1010;2.97029702970297;-0.6893655;1.621553;-0.6031489;1.620832;0.6893654;1.621554;0.6377668;1.607126;
637951436407299762;1326.963;1;5;3;0.2;1.4;1000;3;0.6062179;1.15;0.5686262;1.227694;-0.6893655;1.621553;-0.6031489;1.620832;
637951436427288734;1328.962;1;5;3;0.2;1.4;1999;1.50075037518759;-0.4499517;2.036231;-0.466669;2.017368;0.6062179;1.15;0.5686262;1.227694;
637951436439275435;1330.161;1;5;3;0.2;1.4;1199;2.50208507089241;0.2394144;0.8422153;0.2282349;0.9063081;-0.4499517;2.036231;-0.466669;2.017368;
637951436451278127;1331.361;1;5;2;0.6;1.8;600;3.33333333333333;-0.3078177;0.6542765;-0.2589766;0.7893103;0;2.4;-0.03837938;2.297661;
637951436458269700;1332.06;1;5;2;0.6;1.8;699;2.86123032904149;0.5785087;2.18944;0.5595037;2.263986;-0.3078177;0.6542765;-0.2589766;0.7893103;
637951436464261044;1332.66;1;5;2;0.6;1.8;600;3.33333333333333;-0.7794226;1.05;-0.7693199;1.123293;0.5785087;2.18944;0.5595037;2.263986;
637951436471262618;1333.36;1;5;2;0.6;1.8;700;2.85714285714286;0.8863269;1.656283;0.8698639;1.665657;-0.7794226;1.05;-0.7693199;1.123293;
637951436480314649;1334.265;1;5;2;0.6;1.8;905;2.20994475138122;-0.8863271;1.656283;-0.7522331;1.655915;0.8863269;1.656283;0.8698639;1.665657;
637951436486546045;1334.895;1;5;2;0.6;1.8;631;3.16957210776545;0.779423;1.05;0.6098084;1.297298;-0.8863271;1.656283;-0.7522331;1.655915;
637951436492257335;1335.459;1;5;2;0.6;1.8;564;3.54609929078014;-0.5785094;2.18944;-0.452571;1.92004;0.779423;1.05;0.6098084;1.297298;
637951436499308918;1336.164;1;5;2;0.6;1.8;705;2.83687943262411;0.3078185;0.6542768;0.2586053;0.8367496;-0.5785094;2.18944;-0.452571;1.92004;
637951436524704620;1338.711;1;5;4;0.1;1.4;1142;3.50262697022767;-0.2394138;0.8422151;-0.2438518;0.8917744;0;2.2;0.004764154;2.172212;
637951436555341502;1341.767;1;5;4;0.1;1.4;3056;1.30890052356021;0.4499513;2.036231;0.4435344;2.014839;-0.2394138;0.8422151;-0.2438518;0.8917744;
637951436570334872;1343.266;1;5;4;0.1;1.4;1499;2.66844563042028;-0.6062176;1.15;-0.5748605;1.165054;0.4499513;2.036231;0.4435344;2.014839;
637951436581327340;1344.366;1;5;4;0.1;1.4;1099;3.63967242948135;0.6893654;1.621554;0.6453637;1.618966;-0.6062176;1.15;-0.5748605;1.165054;
637951436594320257;1345.665;1;5;4;0.1;1.4;1299;3.07929176289453;-0.6893655;1.621553;-0.6937639;1.625542;0.6893654;1.621554;0.6453637;1.618966;
637951436606362959;1346.87;1;5;4;0.1;1.4;1205;3.3195020746888;0.6062179;1.15;0.5824528;1.163945;-0.6893655;1.621553;-0.6937639;1.625542;
637951436618305645;1348.064;1;5;4;0.1;1.4;1194;3.3500837520938;-0.4499517;2.036231;-0.4200678;2.055336;0.6062179;1.15;0.5824528;1.163945;
637951436640300584;1350.263;1;5;4;0.1;1.4;2199;1.81900864029104;0.2394144;0.8422153;0.2285874;0.8782756;-0.4499517;2.036231;-0.4200678;2.055336;
637951436655403973;1351.774;1;5;2.5;0.3;1.4;900;2.77777777777778;-0.2394138;0.8422151;-0.2162991;0.8286023;0;2.2;0.05462589;2.256492;
637951436664395994;1352.673;1;5;2.5;0.3;1.4;899;2.78086763070078;0.4499513;2.036231;0.3591571;2.098492;-0.2394138;0.8422151;-0.2162991;0.8286023;
637951436674388238;1353.673;1;5;2.5;0.3;1.4;1000;2.5;-0.6062176;1.15;-0.4921385;1.209996;0.4499513;2.036231;0.3591571;2.098492;
637951436682390035;1354.472;1;5;2.5;0.3;1.4;799;3.12891113892365;0.6893654;1.621554;0.7490705;1.55051;-0.6062176;1.15;-0.4921385;1.209996;
637951436692392282;1355.472;1;5;2.5;0.3;1.4;1000;2.5;-0.6893655;1.621553;-0.6464033;1.710188;0.6893654;1.621554;0.7490705;1.55051;
637951436700384076;1356.272;1;5;2.5;0.3;1.4;800;3.125;0.6062179;1.15;0.6024664;1.102033;-0.6893655;1.621553;-0.6464033;1.710188;
637951436707495676;1356.982;1;5;2.5;0.3;1.4;710;3.52112676056338;-0.4499517;2.036231;-0.4759121;2.036487;0.6062179;1.15;0.6024664;1.102033;
637951436715427462;1357.776;1;5;2.5;0.3;1.4;793;3.15258511979823;0.2394144;0.8422153;0.2504444;0.9361165;-0.4499517;2.036231;-0.4759121;2.036487;
637951436735476907;1359.781;1;5;3.5;0.2;2;1200;2.91666666666667;-0.3420197;0.5603072;-0.3161558;0.6400329;0;2.5;0.05185898;2.441079;
637951436763463191;1362.58;1;5;3.5;0.2;2;2799;1.25044658806717;0.6427875;2.266045;0.6687744;2.227678;-0.3420197;0.5603072;-0.3161558;0.6400329;
637951436786461558;1364.879;1;5;3.5;0.2;2;2299;1.52240104393214;-0.8660251;0.9999995;-0.8370393;1.054833;0.6427875;2.266045;0.6687744;2.227678;
637951436797454117;1365.978;1;5;3.5;0.2;2;1099;3.18471337579618;0.9848077;1.673648;0.9403473;1.68416;-0.8660251;0.9999995;-0.8370393;1.054833;
637951436807499462;1366.983;1;5;3.5;0.2;2;1005;3.48258706467662;-0.9848078;1.673648;-0.8972658;1.681504;0.9848077;1.673648;0.9403473;1.68416;
637951436820435848;1368.277;1;5;3.5;0.2;2;1294;2.7047913446677;0.8660256;1;0.8844674;1.032603;-0.9848078;1.673648;-0.8972658;1.681504;
637951436830438099;1369.277;1;5;3.5;0.2;2;999;3.5035035035035;-0.6427882;2.266044;-0.5593808;2.233442;0.8660256;1;0.8844674;1.032603;
637951436844541263;1370.687;1;5;3.5;0.2;2;1411;2.48051027639972;0.3420205;0.5603075;0.3472747;0.6195284;-0.6427882;2.266044;-0.5593808;2.233442;
637951437495693108;1435.802;1;6;2.5;0.3;1.4;800;3.125;-0.2394138;0.8422151;-0.1907427;0.9565068;0;2.2;-0.05376676;2.113979;
637951437503684902;1436.602;1;6;2.5;0.3;1.4;800;3.125;0.4499513;2.036231;0.3941886;1.972583;-0.2394138;0.8422151;-0.1907427;0.9565068;
637951437511676697;1437.401;1;6;2.5;0.3;1.4;799;3.12891113892365;-0.6062176;1.15;-0.5593383;1.226658;0.4499513;2.036231;0.3941886;1.972583;
637951437518918323;1438.133;1;6;2.5;0.3;1.4;732;3.41530054644809;0.6893654;1.621554;0.826137;1.633255;-0.6062176;1.15;-0.5593383;1.226658;
637951437525679845;1438.801;1;6;2.5;0.3;1.4;668;3.74251497005988;-0.6893655;1.621553;-0.6236777;1.636044;0.6893654;1.621554;0.826137;1.633255;
637951437533721794;1439.605;1;6;2.5;0.3;1.4;805;3.1055900621118;0.6062179;1.15;0.5939363;1.244591;-0.6893655;1.621553;-0.6236777;1.636044;
637951437540778254;1440.311;1;6;2.5;0.3;1.4;706;3.54107648725212;-0.4499517;2.036231;-0.4731664;2.016329;0.6062179;1.15;0.5939363;1.244591;
637951437549829571;1441.216;1;6;2.5;0.3;1.4;905;2.76243093922652;0.2394144;0.8422153;0.1927881;0.8535786;-0.4499517;2.036231;-0.4731664;2.016329;
637951437583761941;1444.609;1;6;4.5;0.1;2.2;1899;2.3696682464455;-0.3762217;0.4663379;-0.3520018;0.4873542;0;2.6;-0.001855389;2.59324;
637951437594754183;1445.709;1;6;4.5;0.1;2.2;1100;4.09090909090909;0.7070663;2.342649;0.6724023;2.357145;-0.3762217;0.4663379;-0.3520018;0.4873542;
637951437623743142;1448.607;1;6;4.5;0.1;2.2;2899;1.55225939979303;-0.9526277;0.9499994;-0.9436932;0.9509194;0.7070663;2.342649;0.6724023;2.357145;
637951437639733346;1450.206;1;6;4.5;0.1;2.2;1599;2.81425891181989;1.083289;1.691013;1.033615;1.696531;-0.9526277;0.9499994;-0.9436932;0.9509194;
637951437653776500;1451.611;1;6;4.5;0.1;2.2;1404;3.2051282051282;-1.083289;1.691012;-1.058995;1.692523;1.083289;1.691013;1.033615;1.696531;
637951437669830102;1453.216;1;6;4.5;0.1;2.2;1605;2.80373831775701;0.9526281;0.9500003;0.9423823;0.9926335;-1.083289;1.691012;-1.058995;1.692523;
637951437684813466;1454.715;1;6;4.5;0.1;2.2;1499;3.00200133422282;-0.7070671;2.342648;-0.7339516;2.30706;0.9526281;0.9500003;0.9423823;0.9926335;
637951437711809531;1457.414;1;6;4.5;0.1;2.2;2699;1.66728417932568;0.3762226;0.4663382;0.4033677;0.4999589;-0.7070671;2.342648;-0.7339516;2.30706;
637951437731804022;1459.413;1;6;3.5;0.2;2;999;3.5035035035035;-0.3420197;0.5603072;-0.3296731;0.6298542;0;2.5;-0.04835683;2.49064;
637951437751788510;1461.412;1;6;3.5;0.2;2;1999;1.75087543771886;0.6427875;2.266045;0.5779043;2.233262;-0.3420197;0.5603072;-0.3296731;0.6298542;
637951437762020808;1462.443;1;6;3.5;0.2;2;1030;3.39805825242718;-0.8660251;0.9999995;-0.8068172;1.079072;0.6427875;2.266045;0.5779043;2.233262;
637951437773783450;1463.612;1;6;3.5;0.2;2;1169;2.9940119760479;0.9848077;1.673648;0.949954;1.689733;-0.8660251;0.9999995;-0.8068172;1.079072;
637951437785776146;1464.811;1;6;3.5;0.2;2;1199;2.91909924937448;-0.9848078;1.673648;-1.032618;1.731451;0.9848077;1.673648;0.949954;1.689733;
637951437797058675;1465.946;1;6;3.5;0.2;2;1135;3.08370044052863;0.8660256;1;0.7785642;1.044714;-0.9848078;1.673648;-1.032618;1.731451;
637951437808771301;1467.11;1;6;3.5;0.2;2;1164;3.00687285223368;-0.6427882;2.266044;-0.6518188;2.253853;0.8660256;1;0.7785642;1.044714;
637951437819813790;1468.215;1;6;3.5;0.2;2;1104;3.17028985507246;0.3420205;0.5603075;0.3237278;0.6540147;-0.6427882;2.266044;-0.6518188;2.253853;
637951437850860763;1471.319;1;6;4;0.1;1.4;1799;2.22345747637576;-0.2394138;0.8422151;-0.2408971;0.8827223;0;2.2;0.03125346;2.204504;
637951437864853906;1472.719;1;6;4;0.1;1.4;1399;2.85918513223731;0.4499513;2.036231;0.402411;2.025828;-0.2394138;0.8422151;-0.2408971;0.8827223;
637951437882957971;1474.529;1;6;4;0.1;1.4;1810;2.20994475138122;-0.6062176;1.15;-0.6166836;1.195912;0.4499513;2.036231;0.402411;2.025828;
637951437903182515;1476.558;1;6;4;0.1;1.4;2029;1.9714144898965;0.6893654;1.621554;0.7342659;1.626096;-0.6062176;1.15;-0.6166836;1.195912;
637951437911944482;1477.428;1;6;4;0.1;1.4;870;4.59770114942529;-0.6893655;1.621553;-0.7021776;1.633598;0.6893654;1.621554;0.7342659;1.626096;
637951437921936725;1478.427;1;6;4;0.1;1.4;999;4.004004004004;0.6062179;1.15;0.6038408;1.155869;-0.6893655;1.621553;-0.7021776;1.633598;
637951437931931468;1479.427;1;6;4;0.1;1.4;1000;4;-0.4499517;2.036231;-0.4605525;2.02219;0.6062179;1.15;0.6038408;1.155869;
637951437942323810;1480.473;1;6;4;0.1;1.4;1046;3.82409177820268;0.2394144;0.8422153;0.199954;0.8729229;-0.4499517;2.036231;-0.4605525;2.02219;
637951437960917980;1482.325;1;6;1.5;1.1;2;1199;1.25104253544621;-0.3420197;0.5603072;-0.2386218;0.8783085;0;2.5;0.1118614;2.221355;
637951437966909327;1482.925;1;6;1.5;1.1;2;600;2.5;0.6427875;2.266045;0.5021985;2.264226;-0.3420197;0.5603072;-0.2386218;0.8783085;
637951437973909890;1483.625;1;6;1.5;1.1;2;700;2.14285714285714;-0.8660251;0.9999995;-0.9187841;1.145669;0.6427875;2.266045;0.5021985;2.264226;
637951437979904962;1484.224;1;6;1.5;1.1;2;599;2.50417362270451;0.9848077;1.673648;0.6918425;1.671138;-0.8660251;0.9999995;-0.9187841;1.145669;
637951437985907119;1484.824;1;6;1.5;1.1;2;600;2.5;-0.9848078;1.673648;-0.7719833;1.691565;0.9848077;1.673648;0.6918425;1.671138;
637951437992906057;1485.524;1;6;1.5;1.1;2;700;2.14285714285714;0.8660256;1;0.7301528;1.14885;-0.9848078;1.673648;-0.7719833;1.691565;
637951437997895871;1486.023;1;6;1.5;1.1;2;499;3.0060120240481;-0.6427882;2.266044;-0.4442179;2.040509;0.8660256;1;0.7301528;1.14885;
637951438003903485;1486.623;1;6;1.5;1.1;2;600;2.5;0.3420205;0.5603075;0.1335936;0.7277299;-0.6427882;2.266044;-0.4442179;2.040509;
637951438025887731;1488.822;1;6;3;0.2;1.4;800;3.75;-0.2394138;0.8422151;-0.2470557;0.920481;0;2.2;-0.01752111;2.223429;
637951438037887469;1490.022;1;6;3;0.2;1.4;1200;2.5;0.4499513;2.036231;0.3657581;1.992837;-0.2394138;0.8422151;-0.2470557;0.920481;
637951438046876154;1490.921;1;6;3;0.2;1.4;899;3.33704115684093;-0.6062176;1.15;-0.5687198;1.176671;0.4499513;2.036231;0.3657581;1.992837;
637951438072983454;1493.531;1;6;3;0.2;1.4;2610;1.14942528735632;0.6893654;1.621554;0.6742702;1.614343;-0.6062176;1.15;-0.5687198;1.176671;
637951438085976371;1494.831;1;6;3;0.2;1.4;1300;2.30769230769231;-0.6893655;1.621553;-0.6723925;1.638811;0.6893654;1.621554;0.6742702;1.614343;
637951438110961983;1497.329;1;6;3;0.2;1.4;2499;1.20048019207683;0.6062179;1.15;0.5770444;1.176392;-0.6893655;1.621553;-0.6723925;1.638811;
637951438122954677;1498.529;1;6;3;0.2;1.4;1200;2.5;-0.4499517;2.036231;-0.4526479;2.019696;0.6062179;1.15;0.5770444;1.176392;
637951438131946695;1499.428;1;6;3;0.2;1.4;899;3.33704115684093;0.2394144;0.8422153;0.2170837;0.8630114;-0.4499517;2.036231;-0.4526479;2.019696;
637951438153001423;1501.533;1;6;2;0.6;1.8;1404;1.42450142450142;-0.3078177;0.6542765;-0.1943808;0.8414576;0;2.4;0.04186206;2.164864;
637951438159932982;1502.227;1;6;2;0.6;1.8;694;2.88184438040346;0.5785087;2.18944;0.4666192;2.043273;-0.3078177;0.6542765;-0.1943808;0.8414576;
637951438166934554;1502.927;1;6;2;0.6;1.8;700;2.85714285714286;-0.7794226;1.05;-0.7036818;1.181081;0.5785087;2.18944;0.4666192;2.043273;
637951438174936351;1503.726;1;6;2;0.6;1.8;800;2.5;0.8863269;1.656283;0.9245666;1.613146;-0.7794226;1.05;-0.7036818;1.181081;
637951438182928150;1504.526;1;6;2;0.6;1.8;800;2.5;-0.8863271;1.656283;-0.8361091;1.580456;0.8863269;1.656283;0.9245666;1.613146;
637951438190929944;1505.326;1;6;2;0.6;1.8;800;2.5;0.779423;1.05;0.6618974;1.148016;-0.8863271;1.656283;-0.8361091;1.580456;
637951438197921508;1506.026;1;6;2;0.6;1.8;700;2.85714285714286;-0.5785094;2.18944;-0.5850321;2.200723;0.779423;1.05;0.6618974;1.148016;
637951438205033113;1506.736;1;6;2;0.6;1.8;711;2.81293952180028;0.3078185;0.6542768;0.2326323;0.8133296;-0.5785094;2.18944;-0.5850321;2.200723;
637951439034433639;1589.676;1;7;3.5;0.2;2;899;3.89321468298109;-0.3420197;0.5603072;-0.2871633;0.6353374;0;2.5;-0.067706;2.557498;
637951439045424722;1590.776;1;7;3.5;0.2;2;1100;3.18181818181818;0.6427875;2.266045;0.6431876;2.238484;-0.3420197;0.5603072;-0.2871633;0.6353374;
637951439052422954;1591.475;1;7;3.5;0.2;2;699;5.0071530758226;-0.8660251;0.9999995;-0.8927199;1.009993;0.6427875;2.266045;0.6431876;2.238484;
637951439060422939;1592.275;1;7;3.5;0.2;2;800;4.375;0.9848077;1.673648;0.9284261;1.643198;-0.8660251;0.9999995;-0.8927199;1.009993;
637951439068523859;1593.086;1;7;3.5;0.2;2;811;4.31565967940814;-0.9848078;1.673648;-0.9671342;1.630589;0.9848077;1.673648;0.9284261;1.643198;
637951439076522663;1593.885;1;7;3.5;0.2;2;800;4.375;0.8660256;1;0.8253475;1.072073;-0.9848078;1.673648;-0.9671342;1.630589;
637951439087525069;1594.985;1;7;3.5;0.2;2;1100;3.18181818181818;-0.6427882;2.266044;-0.6458355;2.315858;0.8660256;1;0.8253475;1.072073;
637951439097509631;1595.985;1;7;3.5;0.2;2;1000;3.5;0.3420205;0.5603075;0.282007;0.5930854;-0.6427882;2.266044;-0.6458355;2.315858;
637951439124505695;1598.683;1;7;4.5;0.1;2.2;1300;3.46153846153846;-0.3762217;0.4663379;-0.3709875;0.5037698;0;2.6;-0.02433285;2.589271;
637951439139889143;1600.23;1;7;4.5;0.1;2.2;1547;2.90885585003232;0.7070663;2.342649;0.7099077;2.385635;-0.3762217;0.4663379;-0.3709875;0.5037698;
637951439154602455;1601.693;1;7;4.5;0.1;2.2;1464;3.07377049180328;-0.9526277;0.9499994;-0.9597247;0.9775635;0.7070663;2.342649;0.7099077;2.385635;
637951439170586041;1603.292;1;7;4.5;0.1;2.2;1599;2.81425891181989;1.083289;1.691013;1.054416;1.716001;-0.9526277;0.9499994;-0.9597247;0.9775635;
637951439200572784;1606.291;1;7;4.5;0.1;2.2;2999;1.50050016672224;-1.083289;1.691012;-1.03737;1.674156;1.083289;1.691013;1.054416;1.716001;
637951439229679315;1609.201;1;7;4.5;0.1;2.2;2910;1.54639175257732;0.9526281;0.9500003;0.9601852;0.9632754;-1.083289;1.691012;-1.03737;1.674156;
637951439253664707;1611.6;1;7;4.5;0.1;2.2;2399;1.87578157565652;-0.7070671;2.342648;-0.690403;2.330617;0.9526281;0.9500003;0.9601852;0.9632754;
637951439269658294;1613.199;1;7;4.5;0.1;2.2;1599;2.81425891181989;0.3762226;0.4663382;0.3422834;0.4761426;-0.7070671;2.342648;-0.690403;2.330617;
637951439290763037;1615.309;1;7;3;0.2;1.4;1011;2.9673590504451;-0.2394138;0.8422151;-0.2489393;0.9236706;0;2.2;0.04872791;2.200464;
637951439297754607;1616.009;1;7;3;0.2;1.4;699;4.29184549356223;0.4499513;2.036231;0.4197193;1.986609;-0.2394138;0.8422151;-0.2489393;0.9236706;
637951439305746400;1616.808;1;7;3;0.2;1.4;800;3.75;-0.6062176;1.15;-0.6232529;1.171866;0.4499513;2.036231;0.4197193;1.986609;
637951439313748197;1617.608;1;7;3;0.2;1.4;800;3.75;0.6893654;1.621554;0.6382024;1.64114;-0.6062176;1.15;-0.6232529;1.171866;
637951439321739991;1618.407;1;7;3;0.2;1.4;799;3.75469336670839;-0.6893655;1.621553;-0.7231986;1.666024;0.6893654;1.621554;0.6382024;1.64114;
637951439330732010;1619.307;1;7;3;0.2;1.4;900;3.33333333333333;0.6062179;1.15;0.684731;1.123531;-0.6893655;1.621553;-0.7231986;1.666024;
637951439339744034;1620.208;1;7;3;0.2;1.4;901;3.32963374028857;-0.4499517;2.036231;-0.4972468;2.006053;0.6062179;1.15;0.684731;1.123531;
637951439347735830;1621.006;1;7;3;0.2;1.4;799;3.75469336670839;0.2394144;0.8422153;0.217538;0.820196;-0.4499517;2.036231;-0.4972468;2.006053;
637951439361758981;1622.409;1;7;2.5;0.3;1.4;703;3.55618776671408;-0.2394138;0.8422151;-0.1709273;0.7977861;0;2.2;-0.001780729;2.27106;
637951439367720323;1623.005;1;7;2.5;0.3;1.4;596;4.19463087248322;0.4499513;2.036231;0.4909869;2.100189;-0.2394138;0.8422151;-0.1709273;0.7977861;
637951439379828090;1624.216;1;7;2.5;0.3;1.4;1211;2.06440957886045;-0.6062176;1.15;-0.5514569;1.169702;0.4499513;2.036231;0.4909869;2.100189;
637951439388818552;1625.116;1;7;2.5;0.3;1.4;900;2.77777777777778;0.6893654;1.621554;0.7532275;1.717382;-0.6062176;1.15;-0.5514569;1.169702;
637951439396870115;1625.92;1;7;2.5;0.3;1.4;804;3.10945273631841;-0.6893655;1.621553;-0.7377746;1.63745;0.6893654;1.621554;0.7532275;1.717382;
637951439403817461;1626.615;1;7;2.5;0.3;1.4;695;3.59712230215827;0.6062179;1.15;0.6400276;1.228852;-0.6893655;1.621553;-0.7377746;1.63745;
637951439412809481;1627.514;1;7;2.5;0.3;1.4;899;2.78086763070078;-0.4499517;2.036231;-0.4960853;1.895981;0.6062179;1.15;0.6400276;1.228852;
637951439436804869;1629.913;1;7;2.5;0.3;1.4;2399;1.04210087536474;0.2394144;0.8422153;0.2017773;0.9095442;-0.4499517;2.036231;-0.4960853;1.895981;
637951439448800056;1631.113;1;7;2;0.6;1.8;500;4;-0.3078177;0.6542765;-0.2099896;0.8841718;0;2.4;0.08632936;2.244684;
637951439455844076;1631.818;1;7;2;0.6;1.8;705;2.83687943262411;0.5785087;2.18944;0.5401114;2.215179;-0.3078177;0.6542765;-0.2099896;0.8841718;
637951439460803834;1632.313;1;7;2;0.6;1.8;495;4.04040404040404;-0.7794226;1.05;-0.5925106;1.197055;0.5785087;2.18944;0.5401114;2.215179;
637951439466834346;1632.917;1;7;2;0.6;1.8;604;3.3112582781457;0.8863269;1.656283;0.6990016;1.661094;-0.7794226;1.05;-0.5925106;1.197055;
637951439472785477;1633.512;1;7;2;0.6;1.8;595;3.36134453781513;-0.8863271;1.656283;-0.801818;1.76172;0.8863269;1.656283;0.6990016;1.661094;
637951439479777083;1634.211;1;7;2;0.6;1.8;699;2.86123032904149;0.779423;1.05;0.8506187;1.124274;-0.8863271;1.656283;-0.801818;1.76172;
637951439496890920;1635.922;1;7;2;0.6;1.8;1711;1.16890707188778;-0.5785094;2.18944;-0.3588855;2.214431;0.779423;1.05;0.8506187;1.124274;
637951439505882945;1636.821;1;7;2;0.6;1.8;899;2.22469410456062;0.3078185;0.6542768;0.3457858;0.7324235;-0.5785094;2.18944;-0.3588855;2.214431;
637951439531868781;1639.42;1;7;1.5;1.1;2;1899;0.789889415481833;-0.3420197;0.5603072;-0.1821002;0.9649124;0;2.5;0.01588627;2.335891;
637951439537870128;1640.02;1;7;1.5;1.1;2;600;2.5;0.6427875;2.266045;0.2990327;1.963215;-0.3420197;0.5603072;-0.1821002;0.9649124;
637951439543861477;1640.62;1;7;1.5;1.1;2;600;2.5;-0.8660251;0.9999995;-0.5511217;1.212693;0.6427875;2.266045;0.2990327;1.963215;
637951439549862823;1641.219;1;7;1.5;1.1;2;600;2.5;0.9848077;1.673648;0.5973219;1.664477;-0.8660251;0.9999995;-0.5511217;1.212693;
637951439555864173;1641.819;1;7;1.5;1.1;2;600;2.5;-0.9848078;1.673648;-0.8362492;1.721489;0.9848077;1.673648;0.5973219;1.664477;
637951439560855294;1642.319;1;7;1.5;1.1;2;500;3;0.8660256;1;0.6543244;1.355176;-0.9848078;1.673648;-0.8362492;1.721489;
637951439566856643;1642.918;1;7;1.5;1.1;2;599;2.50417362270451;-0.6427882;2.266044;-0.48215;1.954081;0.8660256;1;0.6543244;1.355176;
637951439571847762;1643.418;1;7;1.5;1.1;2;500;3;0.3420205;0.5603075;0.3400394;0.9395375;-0.6427882;2.266044;-0.48215;1.954081;
637951439603834941;1646.617;1;7;4;0.1;1.4;1400;2.85714285714286;-0.2394138;0.8422151;-0.2303361;0.8901526;0;2.2;0.004905863;2.197555;
637951439624829663;1648.716;1;7;4;0.1;1.4;2099;1.90566936636494;0.4499513;2.036231;0.4440143;2.000523;-0.2394138;0.8422151;-0.2303361;0.8901526;
637951439636822356;1649.915;1;7;4;0.1;1.4;1199;3.33611342785655;-0.6062176;1.15;-0.5694717;1.164063;0.4499513;2.036231;0.4440143;2.000523;
637951439657917093;1652.025;1;7;4;0.1;1.4;2110;1.8957345971564;0.6893654;1.621554;0.6409951;1.622311;-0.6062176;1.15;-0.5694717;1.164063;
637951439670920017;1653.325;1;7;4;0.1;1.4;1300;3.07692307692308;-0.6893655;1.621553;-0.6451195;1.620006;0.6893654;1.621554;0.6409951;1.622311;
637951439688904051;1655.124;1;7;4;0.1;1.4;1799;2.22345747637576;0.6062179;1.15;0.596458;1.187239;-0.6893655;1.621553;-0.6451195;1.620006;
637951439702897196;1656.523;1;7;4;0.1;1.4;1400;2.85714285714286;-0.4499517;2.036231;-0.4433054;2.039022;0.6062179;1.15;0.596458;1.187239;
637951439717900564;1658.023;1;7;4;0.1;1.4;1500;2.66666666666667;0.2394144;0.8422153;0.2497241;0.8082968;-0.4499517;2.036231;-0.4433054;2.039022;
