637949607155991563;215.0606;20;0;3;0.2;1.4;1399;2.14438884917798;-0.2394138;0.8422151;-0.21679;0.8903;0;2.2;0.0187286;2.14468;
637949607172985393;216.76;20;0;3;0.2;1.4;1699;1.76574455562095;0.4499513;2.036231;0.4226173;2.058307;-0.2394138;0.8422151;-0.21679;0.8903;
637949607187973411;218.2594;20;0;3;0.2;1.4;1499;2.00133422281521;-0.6062176;1.15;-0.5553858;1.181111;0.4499513;2.036231;0.4226173;2.058307;
637949607207957910;220.2582;20;0;3;0.2;1.4;1999;1.50075037518759;0.6893654;1.621554;0.6223275;1.605203;-0.6062176;1.15;-0.5553858;1.181111;
637949607223957399;221.8576;20;0;3;0.2;1.4;1599;1.87617260787993;-0.6893655;1.621553;-0.6588794;1.648281;0.6893654;1.621554;0.6223275;1.605203;
637949607240947458;223.5571;20;0;3;0.2;1.4;1699;1.76574455562095;0.6062179;1.15;0.5502766;1.190455;-0.6893655;1.621553;-0.6588794;1.648281;
637949607259046835;225.3669;20;0;3;0.2;1.4;1810;1.65745856353591;-0.4499517;2.036231;-0.4361203;2.026259;0.6062179;1.15;0.5502766;1.190455;
637949607273046718;226.7667;20;0;3;0.2;1.4;1400;2.14285714285714;0.2394144;0.8422153;0.2145792;0.9390658;-0.4499517;2.036231;-0.4361203;2.026259;
637949607314032594;230.8647;20;0;3.5;0.2;2;2602;1.34511913912375;-0.3420197;0.5603072;-0.3480766;0.5688595;0;2.5;-0.00737394;2.450724;
637949607348010241;234.263;20;0;3.5;0.2;2;3398;1.03001765744556;0.6427875;2.266045;0.616065;2.254077;-0.3420197;0.5603072;-0.3480766;0.5688595;
637949607376106565;237.0727;20;0;3.5;0.2;2;2810;1.24555160142349;-0.8660251;0.9999995;-0.8405488;1.005071;0.6427875;2.266045;0.616065;2.254077;
637949607391099938;238.5722;20;0;3.5;0.2;2;1499;2.33488992661775;0.9848077;1.673648;0.9243367;1.696583;-0.8660251;0.9999995;-0.8405488;1.005071;
637949607415085336;240.9711;20;0;3.5;0.2;2;2399;1.45894122551063;-0.9848078;1.673648;-0.9636069;1.665293;0.9848077;1.673648;0.9243367;1.696583;
637949607431078938;242.5701;20;0;3.5;0.2;2;1599;2.18886804252658;0.8660256;1;0.8043716;1.05064;-0.9848078;1.673648;-0.9636069;1.665293;
637949607448072763;244.2695;20;0;3.5;0.2;2;1699;2.06003531489111;-0.6427882;2.266044;-0.6175026;2.21875;0.8660256;1;0.8043716;1.05064;
637949607463076142;245.7693;20;0;3.5;0.2;2;1500;2.33333333333333;0.3420205;0.5603075;0.3661302;0.6210902;-0.6427882;2.266044;-0.6175026;2.21875;
637949607483060640;247.768;20;0;2;0.6;1.8;900;2.22222222222222;-0.3078177;0.6542765;-0.2584533;0.8327546;0;2.4;-0.009724017;2.267877;
637949607494053113;248.8672;20;0;2;0.6;1.8;1099;1.81983621474067;0.5785087;2.18944;0.5619822;2.148636;-0.3078177;0.6542765;-0.2584533;0.8327546;
637949607505045586;249.9666;20;0;2;0.6;1.8;1099;1.81983621474067;-0.7794226;1.05;-0.7288909;1.208941;0.5785087;2.18944;0.5619822;2.148636;
637949607517038284;251.166;20;0;2;0.6;1.8;1199;1.66805671392827;0.8863269;1.656283;0.7715762;1.669668;-0.7794226;1.05;-0.7288909;1.208941;
637949607526040311;252.0657;20;0;2;0.6;1.8;900;2.22222222222222;-0.8863271;1.656283;-0.9433562;1.751603;0.8863269;1.656283;0.7715762;1.669668;
637949607543144163;253.7762;20;0;2;0.6;1.8;1710;1.16959064327485;0.779423;1.05;0.6713178;1.211053;-0.8863271;1.656283;-0.9433562;1.751603;
637949607554136635;254.8755;20;0;2;0.6;1.8;1099;1.81983621474067;-0.5785094;2.18944;-0.4799302;2.280544;0.779423;1.05;0.6713178;1.211053;
637949607565129107;255.9751;20;0;2;0.6;1.8;1100;1.81818181818182;0.3078185;0.6542768;0.1078069;0.8603277;-0.5785094;2.18944;-0.4799302;2.280544;
637949607612112911;260.6728;20;0;1.5;1.1;2;3598;0.416898276820456;-0.3420197;0.5603072;-0.300846;1.038188;0;2.5;-0.04691389;2.253103;
637949607639093210;263.3716;20;0;1.5;1.1;2;2699;0.555761393108559;0.6427875;2.266045;0.2918555;2.248568;-0.3420197;0.5603072;-0.300846;1.038188;
637949607660089151;265.4706;20;0;1.5;1.1;2;2099;0.714626012386851;-0.8660251;0.9999995;-0.6560842;1.376212;0.6427875;2.266045;0.2918555;2.248568;
637949607674082297;266.8701;20;0;1.5;1.1;2;1399;1.07219442458899;0.9848077;1.673648;0.5598827;1.643023;-0.8660251;0.9999995;-0.6560842;1.376212;
637949607687185249;268.1809;20;0;1.5;1.1;2;1311;1.1441647597254;-0.9848078;1.673648;-0.5624893;1.619305;0.9848077;1.673648;0.5598827;1.643023;
637949607700178173;269.4801;20;0;1.5;1.1;2;1299;1.15473441108545;0.8660256;1;0.5950361;1.230293;-0.9848078;1.673648;-0.5624893;1.619305;
637949607712180877;270.6796;20;0;1.5;1.1;2;1199;1.25104253544621;-0.6427882;2.266044;-0.4200516;2.164938;0.8660256;1;0.5950361;1.230293;
637949607725163796;271.9787;20;0;1.5;1.1;2;1299;1.15473441108545;0.3420205;0.5603075;0.1701866;0.9205027;-0.6427882;2.266044;-0.4200516;2.164938;
637949607752149873;274.6774;20;0;4;0.1;1.4;1170;3.41880341880342;-0.2394138;0.8422151;-0.2729411;0.8790121;0;2.2;-0.0248702;2.163789;
637949607766143022;276.0767;20;0;4;0.1;1.4;1399;2.85918513223731;0.4499513;2.036231;0.4108896;2.038505;-0.2394138;0.8422151;-0.2729411;0.8790121;
637949607783136843;277.7761;20;0;4;0.1;1.4;1699;2.35432607416127;-0.6062176;1.15;-0.6030691;1.173489;0.4499513;2.036231;0.4108896;2.038505;
637949607821125396;281.5746;20;0;4;0.1;1.4;3799;1.05290866017373;0.6893654;1.621554;0.6743376;1.637875;-0.6062176;1.15;-0.6030691;1.173489;
637949607836338823;283.1027;20;0;4;0.1;1.4;1528;2.61780104712042;-0.6893655;1.621553;-0.7311634;1.615754;0.6893654;1.621554;0.6743376;1.637875;
637949607853222621;284.7847;20;0;4;0.1;1.4;1682;2.37812128418549;0.6062179;1.15;0.5646831;1.157475;-0.6893655;1.621553;-0.7311634;1.615754;
637949607876207794;287.0829;20;0;4;0.1;1.4;2298;1.74064403829417;-0.4499517;2.036231;-0.4602365;2.025418;0.6062179;1.15;0.5646831;1.157475;
637949607893201623;288.7818;20;0;4;0.1;1.4;1699;2.35432607416127;0.2394144;0.8422153;0.1904835;0.8490402;-0.4499517;2.036231;-0.4602365;2.025418;
637949607926189414;292.0807;20;0;4.5;0.1;2.2;1499;3.00200133422282;-0.3762217;0.4663379;-0.3568647;0.5062797;0;2.6;-0.02368081;2.570171;
637949607940178261;293.48;20;0;4.5;0.1;2.2;1399;3.21658327376698;0.7070663;2.342649;0.6632559;2.323724;-0.3762217;0.4663379;-0.3568647;0.5062797;
637949607955281662;294.9905;20;0;4.5;0.1;2.2;1511;2.97816015883521;-0.9526277;0.9499994;-0.9336232;0.9613916;0.7070663;2.342649;0.6632559;2.323724;
637949608002259289;299.6883;20;0;4.5;0.1;2.2;4698;0.957854406130268;1.083289;1.691013;1.094963;1.687637;-0.9526277;0.9499994;-0.9336232;0.9613916;
637949608020259101;301.4875;20;0;4.5;0.1;2.2;1799;2.50138966092273;-1.083289;1.691012;-1.067195;1.699236;1.083289;1.691013;1.094963;1.687637;
637949608041249574;303.5865;20;0;4.5;0.1;2.2;2099;2.14387803716055;0.9526281;0.9500003;0.9159216;0.9455421;-1.083289;1.691012;-1.067195;1.699236;
637949608068338825;306.2961;20;0;4.5;0.1;2.2;2710;1.66051660516605;-0.7070671;2.342648;-0.7044502;2.305756;0.9526281;0.9500003;0.9159216;0.9455421;
637949608087327780;308.1952;20;0;4.5;0.1;2.2;1899;2.3696682464455;0.3762226;0.4663382;0.359438;0.474406;-0.7070671;2.342648;-0.7044502;2.305756;
637949608109330950;310.3946;20;0;2.5;0.3;1.4;1000;2.5;-0.2394138;0.8422151;-0.2551234;0.9131745;0;2.2;-0.03488004;2.239751;
637949608122320101;311.6939;20;0;2.5;0.3;1.4;1299;1.92455735180908;0.4499513;2.036231;0.3444309;2.068054;-0.2394138;0.8422151;-0.2551234;0.9131745;
637949608136307599;313.093;20;0;2.5;0.3;1.4;1399;1.78699070764832;-0.6062176;1.15;-0.5888872;1.254569;0.4499513;2.036231;0.3444309;2.068054;
637949608152302472;314.6923;20;0;2.5;0.3;1.4;1599;1.56347717323327;0.6893654;1.621554;0.6155857;1.646652;-0.6062176;1.15;-0.5888872;1.254569;
637949608165295398;315.9913;20;0;2.5;0.3;1.4;1299;1.92455735180908;-0.6893655;1.621553;-0.61828;1.624702;0.6893654;1.621554;0.6155857;1.646652;
637949608182289221;317.6909;20;0;2.5;0.3;1.4;1700;1.47058823529412;0.6062179;1.15;0.5025196;1.19476;-0.6893655;1.621553;-0.61828;1.624702;
637949608194391947;318.9015;20;0;2.5;0.3;1.4;1211;2.06440957886045;-0.4499517;2.036231;-0.4230429;2.015669;0.6062179;1.15;0.5025196;1.19476;
637949608208385101;320.3007;20;0;2.5;0.3;1.4;1399;1.78699070764832;0.2394144;0.8422153;0.2232852;0.9696645;-0.4499517;2.036231;-0.4230429;2.015669;
637949609320654268;431.5267;20;1;4.5;0.1;2.2;1999;2.25112556278139;-0.3762217;0.4663379;-0.3869698;0.4838011;0;2.6;-0.0193075;2.573068;
637949609337644550;433.2258;20;1;4.5;0.1;2.2;1699;2.64861683343143;0.7070663;2.342649;0.6693014;2.312464;-0.3762217;0.4663379;-0.3869698;0.4838011;
637949609365743800;436.036;20;1;4.5;0.1;2.2;2810;1.60142348754448;-0.9526277;0.9499994;-0.9529346;0.9693607;0.7070663;2.342649;0.6693014;2.312464;
637949609380733614;437.5351;20;1;4.5;0.1;2.2;1499;3.00200133422282;1.083289;1.691013;1.049123;1.686651;-0.9526277;0.9499994;-0.9529346;0.9693607;
637949609394728324;438.9344;20;1;4.5;0.1;2.2;1399;3.21658327376698;-1.083289;1.691012;-1.102166;1.705753;1.083289;1.691013;1.049123;1.686651;
637949609412715416;440.7334;20;1;4.5;0.1;2.2;1799;2.50138966092273;0.9526281;0.9500003;0.9131148;0.9804856;-1.083289;1.691012;-1.102166;1.705753;
637949609436812750;443.1436;20;1;4.5;0.1;2.2;2410;1.86721991701245;-0.7070671;2.342648;-0.711259;2.30087;0.9526281;0.9500003;0.9131148;0.9804856;
637949609453813510;444.8427;20;1;4.5;0.1;2.2;1699;2.64861683343143;0.3762226;0.4663382;0.3767046;0.5051968;-0.7070671;2.342648;-0.711259;2.30087;
637949609503894806;449.8516;20;1;3;0.2;1.4;2509;1.19569549621363;-0.2394138;0.8422151;-0.2396467;0.8892308;0;2.2;-0.006427091;2.225294;
637949609518888181;451.351;20;1;3;0.2;1.4;1499;2.00133422281521;0.4499513;2.036231;0.3994729;2.03928;-0.2394138;0.8422151;-0.2396467;0.8892308;
637949609534881782;452.9505;20;1;3;0.2;1.4;1599;1.87617260787993;-0.6062176;1.15;-0.5646155;1.205934;0.4499513;2.036231;0.3994729;2.03928;
637949609548874930;454.3493;20;1;3;0.2;1.4;1399;2.14438884917798;0.6893654;1.621554;0.6254365;1.587965;-0.6062176;1.15;-0.5646155;1.205934;
637949609561867859;455.649;20;1;3;0.2;1.4;1300;2.30769230769231;-0.6893655;1.621553;-0.6594001;1.609826;0.6893654;1.621554;0.6254365;1.587965;
637949609576861229;457.1483;20;1;3;0.2;1.4;1499;2.00133422281521;0.6062179;1.15;0.5446969;1.188514;-0.6893655;1.621553;-0.6594001;1.609826;
637949609595855503;459.0474;20;1;3;0.2;1.4;1899;1.57977883096367;-0.4499517;2.036231;-0.4539085;2.013063;0.6062179;1.15;0.5446969;1.188514;
637949609609848655;460.4471;20;1;3;0.2;1.4;1400;2.14285714285714;0.2394144;0.8422153;0.1770537;0.8627183;-0.4499517;2.036231;-0.4539085;2.013063;
637949609642936456;463.7561;20;1;2;0.6;1.8;999;2.002002002002;-0.3078177;0.6542765;-0.2581309;0.879998;0;2.4;-0.03520025;2.228671;
637949609653936022;464.8558;20;1;2;0.6;1.8;1100;1.81818181818182;0.5785087;2.18944;0.4161861;2.037741;-0.3078177;0.6542765;-0.2581309;0.879998;
637949609664936237;465.9552;20;1;2;0.6;1.8;1099;1.81983621474067;-0.7794226;1.05;-0.7191434;1.205931;0.5785087;2.18944;0.4161861;2.037741;
637949609675924627;467.0547;20;1;2;0.6;1.8;1099;1.81983621474067;0.8863269;1.656283;0.6807164;1.664604;-0.7794226;1.05;-0.7191434;1.205931;
637949609687919375;468.254;20;1;2;0.6;1.8;1199;1.66805671392827;-0.8863271;1.656283;-0.7080243;1.639141;0.8863269;1.656283;0.6807164;1.664604;
637949609697920193;469.2536;20;1;2;0.6;1.8;1000;2;0.779423;1.05;0.6531197;1.185205;-0.8863271;1.656283;-0.7080243;1.639141;
637949609707913027;470.2531;20;1;2;0.6;1.8;1000;2;-0.5785094;2.18944;-0.5106757;2.143594;0.779423;1.05;0.6531197;1.185205;
637949609718905500;471.3528;20;1;2;0.6;1.8;1100;1.81818181818182;0.3078185;0.6542768;0.2190289;0.8712437;-0.5785094;2.18944;-0.5106757;2.143594;
637949609746891802;474.1515;20;1;4;0.1;1.4;1499;2.66844563042028;-0.2394138;0.8422151;-0.2290744;0.8862621;0;2.2;-0.003188353;2.187061;
637949609771997445;476.6615;20;1;4;0.1;1.4;2510;1.59362549800797;0.4499513;2.036231;0.4274157;2.03002;-0.2394138;0.8422151;-0.2290744;0.8862621;
637949609797983300;479.2601;20;1;4;0.1;1.4;2599;1.5390534821085;-0.6062176;1.15;-0.6113245;1.168609;0.4499513;2.036231;0.4274157;2.03002;
637949609824979378;481.9594;20;1;4;0.1;1.4;2699;1.48203038162282;0.6893654;1.621554;0.6675056;1.618605;-0.6062176;1.15;-0.6113245;1.168609;
637949609840962974;483.5583;20;1;4;0.1;1.4;1599;2.50156347717323;-0.6893655;1.621553;-0.6840706;1.633962;0.6893654;1.621554;0.6675056;1.618605;
637949609857956797;485.2574;20;1;4;0.1;1.4;1699;2.35432607416127;0.6062179;1.15;0.5672042;1.147507;-0.6893655;1.621553;-0.6840706;1.633962;
637949609878941524;487.3562;20;1;4;0.1;1.4;2099;1.90566936636494;-0.4499517;2.036231;-0.4595576;2.054817;0.6062179;1.15;0.5672042;1.147507;
637949609918920520;491.3544;20;1;4;0.1;1.4;3998;1.00050025012506;0.2394144;0.8422153;0.2131727;0.8634572;-0.4499517;2.036231;-0.4595576;2.054817;
637949609938024818;493.2648;20;1;1.5;1.1;2;800;1.875;-0.3420197;0.5603072;-0.1968035;0.984131;0;2.5;0.05246922;2.255776;
637949609951027749;494.5644;20;1;1.5;1.1;2;1300;1.15384615384615;0.6427875;2.266045;0.4016087;2.012261;-0.3420197;0.5603072;-0.1968035;0.984131;
637949609963024393;495.7639;20;1;1.5;1.1;2;1199;1.25104253544621;-0.8660251;0.9999995;-0.5721519;1.314902;0.6427875;2.266045;0.4016087;2.012261;
637949609974015995;496.8633;20;1;1.5;1.1;2;1099;1.36487716105551;0.9848077;1.673648;0.7879773;1.762624;-0.8660251;0.9999995;-0.5721519;1.314902;
637949609984005861;497.8629;20;1;1.5;1.1;2;1000;1.5;-0.9848078;1.673648;-0.6821048;1.745111;0.9848077;1.673648;0.7879773;1.762624;
637949609993005744;498.7623;20;1;1.5;1.1;2;899;1.66852057842047;0.8660256;1;0.7532003;1.292125;-0.9848078;1.673648;-0.6821048;1.745111;
637949610006995819;500.1615;20;1;1.5;1.1;2;1399;1.07219442458899;-0.6427882;2.266044;-0.4601564;2.07866;0.8660256;1;0.7532003;1.292125;
637949610016995892;501.1611;20;1;1.5;1.1;2;1000;1.5;0.3420205;0.5603075;0.2664365;0.8695123;-0.6427882;2.266044;-0.4601564;2.07866;
637949610054085653;504.8703;20;1;3.5;0.2;2;2099;1.66746069556932;-0.3420197;0.5603072;-0.3462019;0.6201832;0;2.5;-0.02066493;2.443402;
637949610072078902;506.6696;20;1;3.5;0.2;2;1799;1.94552529182879;0.6427875;2.266045;0.6005112;2.253861;-0.3420197;0.5603072;-0.3462019;0.6201832;
637949610087072276;508.1689;20;1;3.5;0.2;2;1499;2.33488992661775;-0.8660251;0.9999995;-0.7825319;1.032526;0.6427875;2.266045;0.6005112;2.253861;
637949610109057223;510.3678;20;1;3.5;0.2;2;2199;1.59163256025466;0.9848077;1.673648;0.9220758;1.679943;-0.8660251;0.9999995;-0.7825319;1.032526;
637949610123050375;511.7672;20;1;3.5;0.2;2;1400;2.5;-0.9848078;1.673648;-0.9550791;1.692845;0.9848077;1.673648;0.9220758;1.679943;
637949610154037348;514.8656;20;1;3.5;0.2;2;3098;1.12976113621691;0.8660256;1;0.8557426;1.028918;-0.9848078;1.673648;-0.9550791;1.692845;
637949610167040277;516.1661;20;1;3.5;0.2;2;1301;2.6902382782475;-0.6427882;2.266044;-0.6077718;2.245006;0.8660256;1;0.8557426;1.028918;
637949610181133449;517.5756;20;1;3.5;0.2;2;1410;2.4822695035461;0.3420205;0.5603075;0.337261;0.6307584;-0.6427882;2.266044;-0.6077718;2.245006;
637949610213120650;520.7744;20;1;2.5;0.3;1.4;1799;1.38966092273485;-0.2394138;0.8422151;-0.236278;0.896404;0;2.2;0.02521285;2.156069;
637949610226113570;522.0735;20;1;2.5;0.3;1.4;1299;1.92455735180908;0.4499513;2.036231;0.358472;2.023552;-0.2394138;0.8422151;-0.236278;0.896404;
637949610244107614;523.8728;20;1;2.5;0.3;1.4;1799;1.38966092273485;-0.6062176;1.15;-0.5147676;1.241663;0.4499513;2.036231;0.358472;2.023552;
637949610256100321;525.0721;20;1;2.5;0.3;1.4;1199;2.08507089241034;0.6893654;1.621554;0.6029228;1.617779;-0.6062176;1.15;-0.5147676;1.241663;
637949610271093698;526.5714;20;1;2.5;0.3;1.4;1499;1.66777851901268;-0.6893655;1.621553;-0.686981;1.63634;0.6893654;1.621554;0.6029228;1.617779;
637949610287087297;528.171;20;1;2.5;0.3;1.4;1600;1.5625;0.6062179;1.15;0.5827538;1.209621;-0.6893655;1.621553;-0.686981;1.63634;
637949610301080445;529.5701;20;1;2.5;0.3;1.4;1399;1.78699070764832;-0.4499517;2.036231;-0.4160355;2.0497;0.6062179;1.15;0.5827538;1.209621;
637949610321074945;531.5695;20;1;2.5;0.3;1.4;2000;1.25;0.2394144;0.8422153;0.1726816;0.8731997;-0.4499517;2.036231;-0.4160355;2.0497;
637949611459432993;645.4052;20;2;3.5;0.2;2;1899;1.84307530279094;-0.3420197;0.5603072;-0.3124652;0.6299318;0;2.5;-0.04028319;2.489481;
637949611472425921;646.7046;20;2;3.5;0.2;2;1299;2.69438029253272;0.6427875;2.266045;0.5870658;2.238438;-0.3420197;0.5603072;-0.3124652;0.6299318;
637949611487535082;648.215;20;2;3.5;0.2;2;1510;2.31788079470199;-0.8660251;0.9999995;-0.8606412;1.028201;0.6427875;2.266045;0.5870658;2.238438;
637949611501527195;649.6146;20;2;3.5;0.2;2;1400;2.5;0.9848077;1.673648;0.9593998;1.703105;-0.8660251;0.9999995;-0.8606412;1.028201;
637949611517520795;651.2137;20;2;3.5;0.2;2;1599;2.18886804252658;-0.9848078;1.673648;-0.9602695;1.679413;0.9848077;1.673648;0.9593998;1.703105;
637949611532512573;652.7131;20;2;3.5;0.2;2;1499;2.33488992661775;0.8660256;1;0.8230279;1.062658;-0.9848078;1.673648;-0.9602695;1.679413;
637949611550502332;654.5121;20;2;3.5;0.2;2;1799;1.94552529182879;-0.6427882;2.266044;-0.6284255;2.202344;0.8660256;1;0.8230279;1.062658;
637949611566494091;656.1115;20;2;3.5;0.2;2;1599;2.18886804252658;0.3420205;0.5603075;0.2943633;0.5792551;-0.6427882;2.266044;-0.6284255;2.202344;
637949611609477994;660.4094;20;2;2.5;0.3;1.4;3099;0.806711842529848;-0.2394138;0.8422151;-0.2589822;0.9194957;0;2.2;0.01396075;2.20286;
637949611620586884;661.5202;20;2;2.5;0.3;1.4;1111;2.25022502250225;0.4499513;2.036231;0.4240442;2.039899;-0.2394138;0.8422151;-0.2589822;0.9194957;
637949611633577989;662.8194;20;2;2.5;0.3;1.4;1299;1.92455735180908;-0.6062176;1.15;-0.5782377;1.156714;0.4499513;2.036231;0.4240442;2.039899;
637949611645567837;664.0189;20;2;2.5;0.3;1.4;1200;2.08333333333333;0.6893654;1.621554;0.6419383;1.623451;-0.6062176;1.15;-0.5782377;1.156714;
637949611658557457;665.3182;20;2;2.5;0.3;1.4;1299;1.92455735180908;-0.6893655;1.621553;-0.6346629;1.626148;0.6893654;1.621554;0.6419383;1.623451;
637949611685546068;668.0169;20;2;2.5;0.3;1.4;2699;0.926268988514265;0.6062179;1.15;0.5559255;1.231022;-0.6893655;1.621553;-0.6346629;1.626148;
637949611697538762;669.2162;20;2;2.5;0.3;1.4;1199;2.08507089241034;-0.4499517;2.036231;-0.3935443;2.056528;0.6062179;1.15;0.5559255;1.231022;
637949611714533051;670.9153;20;2;2.5;0.3;1.4;1699;1.47145379635079;0.2394144;0.8422153;0.1907686;0.9404557;-0.4499517;2.036231;-0.3935443;2.056528;
637949611736639587;673.1256;20;2;1.5;1.1;2;1311;1.1441647597254;-0.3420197;0.5603072;-0.1945002;0.8360544;0;2.5;0.02188246;2.286339;
637949611754633640;674.9249;20;2;1.5;1.1;2;1799;0.833796553640912;0.6427875;2.266045;0.3697413;2.071076;-0.3420197;0.5603072;-0.1945002;0.8360544;
637949611767626560;676.2242;20;2;1.5;1.1;2;1299;1.15473441108545;-0.8660251;0.9999995;-0.6344583;1.14003;0.6427875;2.266045;0.3697413;2.071076;
637949611776618585;677.1238;20;2;1.5;1.1;2;900;1.66666666666667;0.9848077;1.673648;0.8079895;1.8162;-0.8660251;0.9999995;-0.6344583;1.14003;
637949611785610608;678.0233;20;2;1.5;1.1;2;900;1.66666666666667;-0.9848078;1.673648;-0.860063;1.735931;0.9848077;1.673648;0.8079895;1.8162;
637949611795612861;679.0229;20;2;1.5;1.1;2;1000;1.5;0.8660256;1;0.8380678;1.310153;-0.9848078;1.673648;-0.860063;1.735931;
637949611805605113;680.0224;20;2;1.5;1.1;2;1000;1.5;-0.6427882;2.266044;-0.4773093;2.166723;0.8660256;1;0.8380678;1.310153;
637949611816597584;681.122;20;2;1.5;1.1;2;1100;1.36363636363636;0.3420205;0.5603075;0.3263963;0.9368939;-0.6427882;2.266044;-0.4773093;2.166723;
637949611839592760;683.4208;20;2;3;0.2;1.4;1299;2.3094688221709;-0.2394138;0.8422151;-0.2392833;0.9006711;0;2.2;0.005749338;2.150831;
637949611848584781;684.3204;20;2;3;0.2;1.4;900;3.33333333333333;0.4499513;2.036231;0.389041;2.030951;-0.2394138;0.8422151;-0.2392833;0.9006711;
637949611860577482;685.5199;20;2;3;0.2;1.4;1199;2.50208507089241;-0.6062176;1.15;-0.6011451;1.184971;0.4499513;2.036231;0.389041;2.030951;
637949611870569731;686.5194;20;2;3;0.2;1.4;1000;3;0.6893654;1.621554;0.7411386;1.672714;-0.6062176;1.15;-0.6011451;1.184971;
637949611880571983;687.519;20;2;3;0.2;1.4;1000;3;-0.6893655;1.621553;-0.6456473;1.623618;0.6893654;1.621554;0.7411386;1.672714;
637949611901676733;689.6292;20;2;3;0.2;1.4;2110;1.4218009478673;0.6062179;1.15;0.5704756;1.165982;-0.6893655;1.621553;-0.6456473;1.623618;
637949611913669433;690.8286;20;2;3;0.2;1.4;1199;2.50208507089241;-0.4499517;2.036231;-0.4166531;2.041705;0.6062179;1.15;0.5704756;1.165982;
637949611925652128;692.0276;20;2;3;0.2;1.4;1199;2.50208507089241;0.2394144;0.8422153;0.2542651;0.8790449;-0.4499517;2.036231;-0.4166531;2.041705;
637949611958639553;695.3264;20;2;4;0.1;1.4;1599;2.50156347717323;-0.2394138;0.8422151;-0.2649918;0.8728642;0;2.2;-0.01184535;2.178762;
637949611967751604;696.2371;20;2;4;0.1;1.4;911;4.39077936333699;0.4499513;2.036231;0.4298855;1.996988;-0.2394138;0.8422151;-0.2649918;0.8728642;
637949611980744527;697.5366;20;2;4;0.1;1.4;1299;3.07929176289453;-0.6062176;1.15;-0.6068901;1.147;0.4499513;2.036231;0.4298855;1.996988;
637949611991737001;698.6362;20;2;4;0.1;1.4;1100;3.63636363636364;0.6893654;1.621554;0.6624337;1.608283;-0.6062176;1.15;-0.6068901;1.147;
637949612017742855;701.2356;20;2;4;0.1;1.4;2599;1.5390534821085;-0.6893655;1.621553;-0.6721773;1.647811;0.6893654;1.621554;0.6624337;1.608283;
637949612033938334;702.8631;20;2;4;0.1;1.4;1628;2.45700245700246;0.6062179;1.15;0.5579395;1.162462;-0.6893655;1.621553;-0.6721773;1.647811;
637949612048709905;704.3334;20;2;4;0.1;1.4;1470;2.72108843537415;-0.4499517;2.036231;-0.4559831;2.028427;0.6062179;1.15;0.5579395;1.162462;
637949612062703054;705.7325;20;2;4;0.1;1.4;1399;2.85918513223731;0.2394144;0.8422153;0.2178143;0.8465699;-0.4499517;2.036231;-0.4559831;2.028427;
637949612089692558;708.4313;20;2;2;0.6;1.8;1100;1.81818181818182;-0.3078177;0.6542765;-0.2592021;0.8324645;0;2.4;-0.006695895;2.309186;
637949612098692478;709.3311;20;2;2;0.6;1.8;900;2.22222222222222;0.5785087;2.18944;0.48;2.129857;-0.3078177;0.6542765;-0.2592021;0.8324645;
637949612108792601;710.3417;20;2;2;0.6;1.8;1010;1.98019801980198;-0.7794226;1.05;-0.7492139;1.207404;0.5785087;2.18944;0.48;2.129857;
637949612118064234;711.2759;20;2;2;0.6;1.8;934;2.14132762312634;0.8863269;1.656283;1.135287;1.65687;-0.7794226;1.05;-0.7492139;1.207404;
637949612128786647;712.341;20;2;2;0.6;1.8;1065;1.87793427230047;-0.8863271;1.656283;-0.8369432;1.735301;0.8863269;1.656283;1.135287;1.65687;
637949612138788905;713.3405;20;2;2;0.6;1.8;999;2.002002002002;0.779423;1.05;0.7019874;1.221486;-0.8863271;1.656283;-0.8369432;1.735301;
637949612148781149;714.3398;20;2;2;0.6;1.8;999;2.002002002002;-0.5785094;2.18944;-0.454292;2.115393;0.779423;1.05;0.7019874;1.221486;
637949612158773398;715.3396;20;2;2;0.6;1.8;1000;2;0.3078185;0.6542768;0.2776291;0.8747088;-0.5785094;2.18944;-0.454292;2.115393;
637949612187759927;718.238;20;2;4.5;0.1;2.2;1799;2.50138966092273;-0.3762217;0.4663379;-0.3792262;0.5162123;0;2.6;0.005726507;2.559634;
637949612201753072;719.6374;20;2;4.5;0.1;2.2;1399;3.21658327376698;0.7070663;2.342649;0.7322479;2.323553;-0.3762217;0.4663379;-0.3792262;0.5162123;
637949612226748697;722.1364;20;2;4.5;0.1;2.2;2499;1.80072028811525;-0.9526277;0.9499994;-0.9604196;0.900613;0.7070663;2.342649;0.7322479;2.323553;
637949612240731845;723.5355;20;2;4.5;0.1;2.2;1399;3.21658327376698;1.083289;1.691013;1.084421;1.646395;-0.9526277;0.9499994;-0.9604196;0.900613;
637949612260836374;725.5461;20;2;4.5;0.1;2.2;2011;2.23769269020388;-1.083289;1.691012;-1.069515;1.68313;1.083289;1.691013;1.084421;1.646395;
637949612284831771;727.9448;20;2;4.5;0.1;2.2;2399;1.87578157565652;0.9526281;0.9500003;0.9250662;0.9678043;-1.083289;1.691012;-1.069515;1.68313;
637949612298814915;729.3438;20;2;4.5;0.1;2.2;1399;3.21658327376698;-0.7070671;2.342648;-0.6815487;2.339942;0.9526281;0.9500003;0.9250662;0.9678043;
637949612316808968;731.1432;20;2;4.5;0.1;2.2;1799;2.50138966092273;0.3762226;0.4663382;0.3439364;0.4768027;-0.7070671;2.342648;-0.6815487;2.339942;
637949613478379216;847.3002;20;3;2;0.6;1.8;1099;1.81983621474067;-0.3078177;0.6542765;-0.2781017;0.7845894;0;2.4;-0.04208732;2.311015;
637949613488381467;848.2998;20;3;2;0.6;1.8;1000;2;0.5785087;2.18944;0.4573701;2.128984;-0.3078177;0.6542765;-0.2781017;0.7845894;
637949613498373715;849.2992;20;3;2;0.6;1.8;999;2.002002002002;-0.7794226;1.05;-0.6982726;1.18799;0.5785087;2.18944;0.4573701;2.128984;
637949613510366414;850.4986;20;3;2;0.6;1.8;1199;1.66805671392827;0.8863269;1.656283;0.6886537;1.727623;-0.7794226;1.05;-0.6982726;1.18799;
637949613523355214;851.798;20;3;2;0.6;1.8;1299;1.53964588144727;-0.8863271;1.656283;-0.7589946;1.751774;0.8863269;1.656283;0.6886537;1.727623;
637949613535354634;852.9976;20;3;2;0.6;1.8;1200;1.66666666666667;0.779423;1.05;0.6366672;1.071756;-0.8863271;1.656283;-0.7589946;1.751774;
637949613545346881;853.9969;20;3;2;0.6;1.8;999;2.002002002002;-0.5785094;2.18944;-0.4729339;2.195398;0.779423;1.05;0.6366672;1.071756;
637949613557348209;855.1967;20;3;2;0.6;1.8;1200;1.66666666666667;0.3078185;0.6542768;0.3279722;0.7882453;-0.5785094;2.18944;-0.4729339;2.195398;
637949613588441334;858.3062;20;3;2.5;0.3;1.4;1610;1.5527950310559;-0.2394138;0.8422151;-0.2158133;0.9134725;0;2.2;-0.006090799;2.25009;
637949613599443810;859.4058;20;3;2.5;0.3;1.4;1100;2.27272727272727;0.4499513;2.036231;0.3596317;2.038206;-0.2394138;0.8422151;-0.2158133;0.9134725;
637949613612436731;860.7053;20;3;2.5;0.3;1.4;1299;1.92455735180908;-0.6062176;1.15;-0.5141686;1.217342;0.4499513;2.036231;0.3596317;2.038206;
637949613621428756;861.6046;20;3;2.5;0.3;1.4;899;2.78086763070078;0.6893654;1.621554;0.7784503;1.651667;-0.6062176;1.15;-0.5141686;1.217342;
637949613632421230;862.7045;20;3;2.5;0.3;1.4;1100;2.27272727272727;-0.6893655;1.621553;-0.6508588;1.584355;0.6893654;1.621554;0.7784503;1.651667;
637949613644413926;863.9037;20;3;2.5;0.3;1.4;1199;2.08507089241034;0.6062179;1.15;0.5557251;1.256043;-0.6893655;1.621553;-0.6508588;1.584355;
637949613656406630;865.103;20;3;2.5;0.3;1.4;1199;2.08507089241034;-0.4499517;2.036231;-0.4223013;2.057807;0.6062179;1.15;0.5557251;1.256043;
637949613667399103;866.2025;20;3;2.5;0.3;1.4;1099;2.27479526842584;0.2394144;0.8422153;0.2443352;0.8561778;-0.4499517;2.036231;-0.4223013;2.057807;
637949613684402931;867.9018;20;3;1.5;1.1;2;800;1.875;-0.3420197;0.5603072;-0.1662321;0.9416789;0;2.5;-0.001544332;2.135123;
637949613694395180;868.9012;20;3;1.5;1.1;2;999;1.5015015015015;0.6427875;2.266045;0.4355921;1.962237;-0.3420197;0.5603072;-0.1662321;0.9416789;
637949613701386753;869.601;20;3;1.5;1.1;2;700;2.14285714285714;-0.8660251;0.9999995;-0.5836158;1.374971;0.6427875;2.266045;0.4355921;1.962237;
637949613709388549;870.4006;20;3;1.5;1.1;2;800;1.875;0.9848077;1.673648;0.7278115;1.751928;-0.8660251;0.9999995;-0.5836158;1.374971;
637949613719380803;871.4002;20;3;1.5;1.1;2;1000;1.5;-0.9848078;1.673648;-0.6954649;1.711414;0.9848077;1.673648;0.7278115;1.751928;
637949613728372827;872.2996;20;3;1.5;1.1;2;899;1.66852057842047;0.8660256;1;0.6601977;1.273753;-0.9848078;1.673648;-0.6954649;1.711414;
637949613736374627;873.0995;20;3;1.5;1.1;2;800;1.875;-0.6427882;2.266044;-0.5553961;2.094304;0.8660256;1;0.6601977;1.273753;
637949613746376881;874.0994;20;3;1.5;1.1;2;1000;1.5;0.3420205;0.5603075;0.2705748;0.9095075;-0.6427882;2.266044;-0.5553961;2.094304;
637949613777463877;877.2088;20;3;4.5;0.1;2.2;1300;3.46153846153846;-0.3762217;0.4663379;-0.3541076;0.4863468;0;2.6;-0.004268521;2.599495;
637949613801449280;879.6074;20;3;4.5;0.1;2.2;2399;1.87578157565652;0.7070663;2.342649;0.703554;2.3358;-0.3762217;0.4663379;-0.3541076;0.4863468;
637949613818443101;881.3065;20;3;4.5;0.1;2.2;1699;2.64861683343143;-0.9526277;0.9499994;-0.9195775;0.9875162;0.7070663;2.342649;0.703554;2.3358;
637949613854426254;884.9049;20;3;4.5;0.1;2.2;3598;1.25069483046137;1.083289;1.691013;1.048064;1.685391;-0.9526277;0.9499994;-0.9195775;0.9875162;
637949613871417716;886.6041;20;3;4.5;0.1;2.2;1699;2.64861683343143;-1.083289;1.691012;-1.062939;1.669385;1.083289;1.691013;1.048064;1.685391;
637949613888531568;888.3148;20;3;4.5;0.1;2.2;1711;2.63004091174752;0.9526281;0.9500003;0.9067929;0.9686925;-1.083289;1.691012;-1.062939;1.669385;
637949613903524943;889.8143;20;3;4.5;0.1;2.2;1500;3;-0.7070671;2.342648;-0.7059608;2.362273;0.9526281;0.9500003;0.9067929;0.9686925;
637949613918511801;891.3132;20;3;4.5;0.1;2.2;1499;3.00200133422282;0.3762226;0.4663382;0.3431662;0.496099;-0.7070671;2.342648;-0.7059608;2.362273;
637949613940501540;893.512;20;3;3.5;0.2;2;1100;3.18181818181818;-0.3420197;0.5603072;-0.355376;0.5798603;0;2.5;-0.01792847;2.501295;
637949613951491685;894.6115;20;3;3.5;0.2;2;1099;3.18471337579618;0.6427875;2.266045;0.6229231;2.248952;-0.3420197;0.5603072;-0.355376;0.5798603;
637949613966491255;896.1108;20;3;3.5;0.2;2;1499;2.33488992661775;-0.8660251;0.9999995;-0.8371374;1.04336;0.6427875;2.266045;0.6229231;2.248952;
637949613979489667;897.41;20;3;3.5;0.2;2;1299;2.69438029253272;0.9848077;1.673648;0.9279261;1.678945;-0.8660251;0.9999995;-0.8371374;1.04336;
637949613990480981;898.5095;20;3;3.5;0.2;2;1099;3.18471337579618;-0.9848078;1.673648;-1.011207;1.647573;0.9848077;1.673648;0.9279261;1.678945;
637949614002474510;899.7094;20;3;3.5;0.2;2;1200;2.91666666666667;0.8660256;1;0.8066055;1.021832;-0.9848078;1.673648;-1.011207;1.647573;
637949614014467211;900.9085;20;3;3.5;0.2;2;1199;2.91909924937448;-0.6427882;2.266044;-0.5852185;2.203036;0.8660256;1;0.8066055;1.021832;
637949614025569705;902.0193;20;3;3.5;0.2;2;1111;3.15031503150315;0.3420205;0.5603075;0.3290432;0.593173;-0.6427882;2.266044;-0.5852185;2.203036;
637949614052555781;904.7179;20;3;4;0.1;1.4;1299;3.07929176289453;-0.2394138;0.8422151;-0.2500895;0.8717952;0;2.2;-0.006334128;2.183032;
637949614077551407;907.2168;20;3;4;0.1;1.4;2499;1.60064025610244;0.4499513;2.036231;0.4352756;2.003341;-0.2394138;0.8422151;-0.2500895;0.8717952;
637949614100536579;909.5157;20;3;4;0.1;1.4;2299;1.73988690735102;-0.6062176;1.15;-0.5781204;1.146983;0.4499513;2.036231;0.4352756;2.003341;
637949614112529280;910.715;20;3;4;0.1;1.4;1199;3.33611342785655;0.6893654;1.621554;0.680346;1.617135;-0.6062176;1.15;-0.5781204;1.146983;
637949614128532882;912.3148;20;3;4;0.1;1.4;1600;2.5;-0.6893655;1.621553;-0.6766049;1.618307;0.6893654;1.621554;0.680346;1.617135;
637949614140635606;913.525;20;3;4;0.1;1.4;1210;3.30578512396694;0.6062179;1.15;0.6219704;1.172717;-0.6893655;1.621553;-0.6766049;1.618307;
637949614157619429;915.2242;20;3;4;0.1;1.4;1699;2.35432607416127;-0.4499517;2.036231;-0.4195718;2.02084;0.6062179;1.15;0.6219704;1.172717;
637949614169612126;916.4238;20;3;4;0.1;1.4;1200;3.33333333333333;0.2394144;0.8422153;0.2114898;0.8421285;-0.4499517;2.036231;-0.4195718;2.02084;
637949614193607526;918.8226;20;3;3;0.2;1.4;1000;3;-0.2394138;0.8422151;-0.2023541;0.925595;0;2.2;-0.01276241;2.173988;
637949614206600450;920.1224;20;3;3;0.2;1.4;1300;2.30769230769231;0.4499513;2.036231;0.3652202;2.065457;-0.2394138;0.8422151;-0.2023541;0.925595;
637949614219703403;921.4326;20;3;3;0.2;1.4;1310;2.29007633587786;-0.6062176;1.15;-0.573424;1.145886;0.4499513;2.036231;0.3652202;2.065457;
637949614230695875;922.532;20;3;3;0.2;1.4;1099;2.72975432211101;0.6893654;1.621554;0.6231267;1.652581;-0.6062176;1.15;-0.573424;1.145886;
637949614252690826;924.7311;20;3;3;0.2;1.4;2199;1.36425648021828;-0.6893655;1.621553;-0.6749291;1.623246;0.6893654;1.621554;0.6231267;1.652581;
637949614264693528;925.9307;20;3;3;0.2;1.4;1200;2.5;0.6062179;1.15;0.5666749;1.150355;-0.6893655;1.621553;-0.6749291;1.623246;
637949614279683293;927.4298;20;3;3;0.2;1.4;1499;2.00133422281521;-0.4499517;2.036231;-0.4360338;2.043909;0.6062179;1.15;0.5666749;1.150355;
637949614292674820;928.7291;20;3;3;0.2;1.4;1299;2.3094688221709;0.2394144;0.8422153;0.248065;0.8740859;-0.4499517;2.036231;-0.4360338;2.043909;
637949615769220718;1076.383;20;4;3.5;0.2;2;1199;2.91909924937448;-0.3420197;0.5603072;-0.3047242;0.5346791;0;2.5;0.02651263;2.48665;
637949615783213868;1077.782;20;4;3.5;0.2;2;1399;2.50178699070765;0.6427875;2.266045;0.5860707;2.237797;-0.3420197;0.5603072;-0.3047242;0.5346791;
637949615797207018;1079.181;20;4;3.5;0.2;2;1400;2.5;-0.8660251;0.9999995;-0.846032;1.008552;0.6427875;2.266045;0.5860707;2.237797;
637949615809209718;1080.381;20;4;3.5;0.2;2;1199;2.91909924937448;0.9848077;1.673648;0.895834;1.658062;-0.8660251;0.9999995;-0.846032;1.008552;
637949615822192643;1081.68;20;4;3.5;0.2;2;1299;2.69438029253272;-0.9848078;1.673648;-0.9351271;1.673045;0.9848077;1.673648;0.895834;1.658062;
637949615835185565;1082.979;20;4;3.5;0.2;2;1299;2.69438029253272;0.8660256;1;0.8030632;0.9819059;-0.9848078;1.673648;-0.9351271;1.673045;
637949615849188718;1084.379;20;4;3.5;0.2;2;1400;2.5;-0.6427882;2.266044;-0.615782;2.249121;0.8660256;1;0.8030632;0.9819059;
637949615860186247;1085.479;20;4;3.5;0.2;2;1100;3.18181818181818;0.3420205;0.5603075;0.3162907;0.6205727;-0.6427882;2.266044;-0.615782;2.249121;
637949615878176189;1087.277;20;4;2;0.6;1.8;800;2.5;-0.3078177;0.6542765;-0.1973552;0.7752619;0;2.4;0.0121599;2.434469;
637949615886167988;1088.077;20;4;2;0.6;1.8;800;2.5;0.5785087;2.18944;0.4558358;2.024547;-0.3078177;0.6542765;-0.1973552;0.7752619;
637949615896270263;1089.088;20;4;2;0.6;1.8;1010;1.98019801980198;-0.7794226;1.05;-0.695767;1.208899;0.5785087;2.18944;0.4558358;2.024547;
637949615905271369;1089.988;20;4;2;0.6;1.8;900;2.22222222222222;0.8863269;1.656283;0.7192442;1.754346;-0.7794226;1.05;-0.695767;1.208899;
637949615913273174;1090.787;20;4;2;0.6;1.8;799;2.50312891113892;-0.8863271;1.656283;-0.8258035;1.666271;0.8863269;1.656283;0.7192442;1.754346;
637949615922258582;1091.687;20;4;2;0.6;1.8;899;2.22469410456062;0.779423;1.05;0.7204547;1.137524;-0.8863271;1.656283;-0.8258035;1.666271;
637949615931260100;1092.586;20;4;2;0.6;1.8;900;2.22222222222222;-0.5785094;2.18944;-0.5026562;2.153355;0.779423;1.05;0.7204547;1.137524;
637949615945253246;1093.985;20;4;2;0.6;1.8;1399;1.42959256611866;0.3078185;0.6542768;0.2382692;0.8504961;-0.5785094;2.18944;-0.5026562;2.153355;
637949615989233143;1098.384;20;4;4.5;0.1;2.2;2899;1.55225939979303;-0.3762217;0.4663379;-0.3728232;0.4773873;0;2.6;-0.01656955;2.581584;
637949616008217420;1100.282;20;4;4.5;0.1;2.2;1899;2.3696682464455;0.7070663;2.342649;0.7037825;2.314152;-0.3762217;0.4663379;-0.3728232;0.4773873;
637949616028211919;1102.282;20;4;4.5;0.1;2.2;1999;2.25112556278139;-0.9526277;0.9499994;-0.9603102;0.9827522;0.7070663;2.342649;0.7037825;2.314152;
637949616047206193;1104.181;20;4;4.5;0.1;2.2;1899;2.3696682464455;1.083289;1.691013;1.061407;1.674081;-0.9526277;0.9499994;-0.9603102;0.9827522;
637949616063309814;1105.792;20;4;4.5;0.1;2.2;1611;2.79329608938547;-1.083289;1.691012;-1.067551;1.677207;1.083289;1.691013;1.061407;1.674081;
637949616079303415;1107.391;20;4;4.5;0.1;2.2;1599;2.81425891181989;0.9526281;0.9500003;0.9142258;0.9649882;-1.083289;1.691012;-1.067551;1.677207;
637949616094296795;1108.89;20;4;4.5;0.1;2.2;1499;3.00200133422282;-0.7070671;2.342648;-0.6974552;2.301506;0.9526281;0.9500003;0.9142258;0.9649882;
637949616109280156;1110.389;20;4;4.5;0.1;2.2;1499;3.00200133422282;0.3762226;0.4663382;0.3605506;0.4941063;-0.7070671;2.342648;-0.6974552;2.301506;
637949616135276016;1112.988;20;4;3;0.2;1.4;1100;2.72727272727273;-0.2394138;0.8422151;-0.2168175;0.8837162;0;2.2;-0.005895378;2.191591;
637949616149269164;1114.387;20;4;3;0.2;1.4;1399;2.14438884917798;0.4499513;2.036231;0.3953766;2.020551;-0.2394138;0.8422151;-0.2168175;0.8837162;
637949616160261640;1115.487;20;4;3;0.2;1.4;1099;2.72975432211101;-0.6062176;1.15;-0.5573018;1.177908;0.4499513;2.036231;0.3953766;2.020551;
637949616170263891;1116.487;20;4;3;0.2;1.4;1000;3;0.6893654;1.621554;0.6634404;1.605331;-0.6062176;1.15;-0.5573018;1.177908;
637949616181246364;1117.586;20;4;3;0.2;1.4;1099;2.72975432211101;-0.6893655;1.621553;-0.6306611;1.601693;0.6893654;1.621554;0.6634404;1.605331;
637949616190248388;1118.485;20;4;3;0.2;1.4;900;3.33333333333333;0.6062179;1.15;0.5459022;1.219777;-0.6893655;1.621553;-0.6306611;1.601693;
637949616203241312;1119.785;20;4;3;0.2;1.4;1299;2.3094688221709;-0.4499517;2.036231;-0.4441043;2.017607;0.6062179;1.15;0.5459022;1.219777;
637949616216344262;1121.095;20;4;3;0.2;1.4;1310;2.29007633587786;0.2394144;0.8422153;0.2004524;0.8747514;-0.4499517;2.036231;-0.4441043;2.017607;
637949616245330635;1123.994;20;4;4;0.1;1.4;1299;3.07929176289453;-0.2394138;0.8422151;-0.2633428;0.8707591;0;2.2;-0.007338786;2.220679;
637949616257440987;1125.205;20;4;4;0.1;1.4;1211;3.30305532617671;0.4499513;2.036231;0.4228247;2.024322;-0.2394138;0.8422151;-0.2633428;0.8707591;
637949616268433461;1126.304;20;4;4;0.1;1.4;1099;3.63967242948135;-0.6062176;1.15;-0.5774922;1.159222;0.4499513;2.036231;0.4228247;2.024322;
637949616290426182;1128.503;20;4;4;0.1;1.4;2199;1.81900864029104;0.6893654;1.621554;0.671375;1.621636;-0.6062176;1.15;-0.5774922;1.159222;
637949616313413461;1130.802;20;4;4;0.1;1.4;2299;1.73988690735102;-0.6893655;1.621553;-0.6847054;1.618677;0.6893654;1.621554;0.671375;1.621636;
637949616325414655;1132.001;20;4;4;0.1;1.4;1200;3.33333333333333;0.6062179;1.15;0.6076099;1.173389;-0.6893655;1.621553;-0.6847054;1.618677;
637949616340402976;1133.5;20;4;4;0.1;1.4;1499;2.66844563042028;-0.4499517;2.036231;-0.44586;2.025364;0.6062179;1.15;0.6076099;1.173389;
637949616365501266;1136.01;20;4;4;0.1;1.4;2510;1.59362549800797;0.2394144;0.8422153;0.2039918;0.8668239;-0.4499517;2.036231;-0.44586;2.025364;
637949616384485538;1137.91;20;4;2.5;0.3;1.4;900;2.77777777777778;-0.2394138;0.8422151;-0.1981325;0.9453784;0;2.2;-0.007311616;2.132008;
637949616393487559;1138.809;20;4;2.5;0.3;1.4;900;2.77777777777778;0.4499513;2.036231;0.4098845;2.034739;-0.2394138;0.8422151;-0.1981325;0.9453784;
637949616405480265;1140.009;20;4;2.5;0.3;1.4;1200;2.08333333333333;-0.6062176;1.15;-0.6275415;1.14088;0.4499513;2.036231;0.4098845;2.034739;
637949616416472736;1141.108;20;4;2.5;0.3;1.4;1100;2.27272727272727;0.6893654;1.621554;0.6069168;1.607471;-0.6062176;1.15;-0.6275415;1.14088;
637949616425474761;1142.008;20;4;2.5;0.3;1.4;899;2.78086763070078;-0.6893655;1.621553;-0.6208553;1.594951;0.6893654;1.621554;0.6069168;1.607471;
637949616437467453;1143.207;20;4;2.5;0.3;1.4;1200;2.08333333333333;0.6062179;1.15;0.553914;1.133533;-0.6893655;1.621553;-0.6208553;1.594951;
637949616458452186;1145.306;20;4;2.5;0.3;1.4;2099;1.19104335397808;-0.4499517;2.036231;-0.3997363;2.049027;0.6062179;1.15;0.553914;1.133533;
637949616469454661;1146.406;20;4;2.5;0.3;1.4;1100;2.27272727272727;0.2394144;0.8422153;0.2243233;0.959124;-0.4499517;2.036231;-0.3997363;2.049027;
637949616488438933;1148.305;20;4;1.5;1.1;2;1000;1.5;-0.3420197;0.5603072;-0.246505;0.9718821;0;2.5;0.01516239;2.125236;
637949616497440959;1149.204;20;4;1.5;1.1;2;900;1.66666666666667;0.6427875;2.266045;0.4281686;2.02307;-0.3420197;0.5603072;-0.246505;0.9718821;
637949616507543235;1150.215;20;4;1.5;1.1;2;1010;1.48514851485149;-0.8660251;0.9999995;-0.6353782;1.347895;0.6427875;2.266045;0.4281686;2.02307;
637949616516535259;1151.115;20;4;1.5;1.1;2;900;1.66666666666667;0.9848077;1.673648;0.6803169;1.733509;-0.8660251;0.9999995;-0.6353782;1.347895;
637949616527537733;1152.214;20;4;1.5;1.1;2;1100;1.36363636363636;-0.9848078;1.673648;-0.6634904;1.873469;0.9848077;1.673648;0.6803169;1.733509;
637949616538530208;1153.314;20;4;1.5;1.1;2;1099;1.36487716105551;0.8660256;1;0.6426948;1.29311;-0.9848078;1.673648;-0.6634904;1.873469;
637949616548532457;1154.313;20;4;1.5;1.1;2;1000;1.5;-0.6427882;2.266044;-0.3094668;2.209305;0.8660256;1;0.6426948;1.29311;
637949616568516961;1156.312;20;4;1.5;1.1;2;1999;0.750375187593797;0.3420205;0.5603075;0.2417867;0.9494873;-0.6427882;2.266044;-0.3094668;2.209305;
637949617348915478;1234.354;20;5;2.5;0.3;1.4;1110;2.25225225225225;-0.2394138;0.8422151;-0.2138636;0.8726425;0;2.2;0.02331644;2.162981;
637949617358917732;1235.353;20;5;2.5;0.3;1.4;1000;2.5;0.4499513;2.036231;0.391416;2.048405;-0.2394138;0.8422151;-0.2138636;0.8726425;
637949617370900425;1236.552;20;5;2.5;0.3;1.4;1199;2.08507089241034;-0.6062176;1.15;-0.5220938;1.260582;0.4499513;2.036231;0.391416;2.048405;
637949617380902677;1237.552;20;5;2.5;0.3;1.4;999;2.5025025025025;0.6893654;1.621554;0.5802257;1.65483;-0.6062176;1.15;-0.5220938;1.260582;
637949617389894700;1238.451;20;5;2.5;0.3;1.4;900;2.77777777777778;-0.6893655;1.621553;-0.6784834;1.644958;0.6893654;1.621554;0.5802257;1.65483;
637949617399886969;1239.451;20;5;2.5;0.3;1.4;1000;2.5;0.6062179;1.15;0.5740596;1.185988;-0.6893655;1.621553;-0.6784834;1.644958;
637949617410886822;1240.551;20;5;2.5;0.3;1.4;1100;2.27272727272727;-0.4499517;2.036231;-0.4341814;2.091451;0.6062179;1.15;0.5740596;1.185988;
637949617427880648;1242.25;20;5;2.5;0.3;1.4;1699;1.47145379635079;0.2394144;0.8422153;0.1893143;0.8511759;-0.4499517;2.036231;-0.4341814;2.091451;
637949617450865209;1244.549;20;5;3.5;0.2;2;1099;3.18471337579618;-0.3420197;0.5603072;-0.3028369;0.5730495;0;2.5;-0.01404809;2.443173;
637949617461867685;1245.648;20;5;3.5;0.2;2;1100;3.18181818181818;0.6427875;2.266045;0.5833736;2.22116;-0.3420197;0.5603072;-0.3028369;0.5730495;
637949617472860157;1246.748;20;5;3.5;0.2;2;1099;3.18471337579618;-0.8660251;0.9999995;-0.8035723;1.003773;0.6427875;2.266045;0.5833736;2.22116;
637949617484852857;1247.947;20;5;3.5;0.2;2;1200;2.91666666666667;0.9848077;1.673648;0.9188473;1.659298;-0.8660251;0.9999995;-0.8035723;1.003773;
637949617496845556;1249.147;20;5;3.5;0.2;2;1199;2.91909924937448;-0.9848078;1.673648;-0.9739877;1.636793;0.9848077;1.673648;0.9188473;1.659298;
637949617507948054;1250.257;20;5;3.5;0.2;2;1110;3.15315315315315;0.8660256;1;0.8214871;1.008692;-0.9848078;1.673648;-0.9739877;1.636793;
637949617519940755;1251.456;20;5;3.5;0.2;2;1199;2.91909924937448;-0.6427882;2.266044;-0.6059295;2.246351;0.8660256;1;0.8214871;1.008692;
637949617530943230;1252.556;20;5;3.5;0.2;2;1100;3.18181818181818;0.3420205;0.5603075;0.3120726;0.5710143;-0.6427882;2.266044;-0.6059295;2.246351;
637949617556929080;1255.155;20;5;4.5;0.1;2.2;1399;3.21658327376698;-0.3762217;0.4663379;-0.3503682;0.4736658;0;2.6;-0.01199702;2.574244;
637949617570922227;1256.554;20;5;4.5;0.1;2.2;1399;3.21658327376698;0.7070663;2.342649;0.7107476;2.302986;-0.3762217;0.4663379;-0.3503682;0.4736658;
637949617588916277;1258.353;20;5;4.5;0.1;2.2;1799;2.50138966092273;-0.9526277;0.9499994;-0.9341874;0.9646636;0.7070663;2.342649;0.7107476;2.302986;
637949617603909655;1259.853;20;5;4.5;0.1;2.2;1499;3.00200133422282;1.083289;1.691013;1.059197;1.682365;-0.9526277;0.9499994;-0.9341874;0.9646636;
637949617621903704;1261.652;20;5;4.5;0.1;2.2;1799;2.50138966092273;-1.083289;1.691012;-1.058628;1.694096;1.083289;1.691013;1.059197;1.682365;
637949617649890006;1264.451;20;5;4.5;0.1;2.2;2799;1.60771704180064;0.9526281;0.9500003;0.9264607;0.972267;-1.083289;1.691012;-1.058628;1.694096;
637949617661882702;1265.65;20;5;4.5;0.1;2.2;1200;3.75;-0.7070671;2.342648;-0.699222;2.334395;0.9526281;0.9500003;0.9264607;0.972267;
637949617677986329;1267.261;20;5;4.5;0.1;2.2;1610;2.79503105590062;0.3762226;0.4663382;0.3531647;0.4910852;-0.7070671;2.342648;-0.699222;2.334395;
637949617694970150;1268.959;20;5;2;0.6;1.8;900;2.22222222222222;-0.3078177;0.6542765;-0.2310003;0.6798133;0;2.4;0.0780639;2.345347;
637949617702971953;1269.76;20;5;2;0.6;1.8;800;2.5;0.5785087;2.18944;0.5690851;2.028367;-0.3078177;0.6542765;-0.2310003;0.6798133;
637949617710973753;1270.559;20;5;2;0.6;1.8;800;2.5;-0.7794226;1.05;-0.8389654;1.075513;0.5785087;2.18944;0.5690851;2.028367;
637949617719965775;1271.459;20;5;2;0.6;1.8;899;2.22469410456062;0.8863269;1.656283;0.8424151;1.617112;-0.7794226;1.05;-0.8389654;1.075513;
637949617728961732;1272.358;20;5;2;0.6;1.8;899;2.22469410456062;-0.8863271;1.656283;-0.714138;1.662715;0.8863269;1.656283;0.8424151;1.617112;
637949617737953758;1273.257;20;5;2;0.6;1.8;899;2.22469410456062;0.779423;1.05;0.7490591;1.034337;-0.8863271;1.656283;-0.714138;1.662715;
637949617746955784;1274.157;20;5;2;0.6;1.8;900;2.22222222222222;-0.5785094;2.18944;-0.399464;2.164386;0.779423;1.05;0.7490591;1.034337;
637949617754947582;1274.957;20;5;2;0.6;1.8;800;2.5;0.3078185;0.6542768;0.2945344;0.8048656;-0.5785094;2.18944;-0.399464;2.164386;
637949617776940552;1277.156;20;5;3;0.2;1.4;1199;2.50208507089241;-0.2394138;0.8422151;-0.2257229;0.8749201;0;2.2;0.01738274;2.191239;
637949617785932141;1278.056;20;5;3;0.2;1.4;900;3.33333333333333;0.4499513;2.036231;0.3999495;2.013348;-0.2394138;0.8422151;-0.2257229;0.8749201;
637949617795040712;1278.966;20;5;3;0.2;1.4;911;3.29308452250274;-0.6062176;1.15;-0.5281309;1.163611;0.4499513;2.036231;0.3999495;2.013348;
637949617806033186;1280.065;20;5;3;0.2;1.4;1099;2.72975432211101;0.6893654;1.621554;0.6139854;1.676671;-0.6062176;1.15;-0.5281309;1.163611;
637949617816027246;1281.065;20;5;3;0.2;1.4;1000;3;-0.6893655;1.621553;-0.678283;1.631757;0.6893654;1.621554;0.6139854;1.676671;
637949617826027138;1282.065;20;5;3;0.2;1.4;1000;3;0.6062179;1.15;0.5545522;1.154543;-0.6893655;1.621553;-0.678283;1.631757;
637949617835027026;1282.964;20;5;3;0.2;1.4;900;3.33333333333333;-0.4499517;2.036231;-0.440297;2.02922;0.6062179;1.15;0.5545522;1.154543;
637949617855016792;1284.963;20;5;3;0.2;1.4;1999;1.50075037518759;0.2394144;0.8422153;0.2227468;0.8382504;-0.4499517;2.036231;-0.440297;2.02922;
637949617882996482;1287.762;20;5;4;0.1;1.4;1500;2.66666666666667;-0.2394138;0.8422151;-0.2299698;0.8807129;0;2.2;0.003390215;2.191866;
637949617892996358;1288.762;20;5;4;0.1;1.4;1000;4;0.4499513;2.036231;0.4144011;2.05647;-0.2394138;0.8422151;-0.2299698;0.8807129;
637949617903996224;1289.861;20;5;4;0.1;1.4;1099;3.63967242948135;-0.6062176;1.15;-0.6021163;1.173476;0.4499513;2.036231;0.4144011;2.05647;
637949617927089052;1292.171;20;5;4;0.1;1.4;2310;1.73160173160173;0.6893654;1.621554;0.6655778;1.589633;-0.6062176;1.15;-0.6021163;1.173476;
637949617940081971;1293.47;20;5;4;0.1;1.4;1299;3.07929176289453;-0.6893655;1.621553;-0.6635391;1.625367;0.6893654;1.621554;0.6655778;1.589633;
637949617953074895;1294.77;20;5;4;0.1;1.4;1300;3.07692307692308;0.6062179;1.15;0.5880221;1.180481;-0.6893655;1.621553;-0.6635391;1.625367;
637949617979060750;1297.369;20;5;4;0.1;1.4;2599;1.5390534821085;-0.4499517;2.036231;-0.4530506;2.025593;0.6062179;1.15;0.5880221;1.180481;
637949618002055923;1299.667;20;5;4;0.1;1.4;2299;1.73988690735102;0.2394144;0.8422153;0.2365315;0.8712614;-0.4499517;2.036231;-0.4530506;2.025593;
637949618016049072;1301.067;20;5;1.5;1.1;2;700;2.14285714285714;-0.3420197;0.5603072;-0.2404103;0.8411788;0;2.5;-0.001556009;2.346209;
637949618024040870;1301.867;20;5;1.5;1.1;2;800;1.875;0.6427875;2.266045;0.4515076;1.985984;-0.3420197;0.5603072;-0.2404103;0.8411788;
637949618032042672;1302.666;20;5;1.5;1.1;2;800;1.875;-0.8660251;0.9999995;-0.5500641;1.296296;0.6427875;2.266045;0.4515076;1.985984;
637949618039034245;1303.366;20;5;1.5;1.1;2;700;2.14285714285714;0.9848077;1.673648;0.8091056;1.681924;-0.8660251;0.9999995;-0.5500641;1.296296;
637949618048036268;1304.266;20;5;1.5;1.1;2;900;1.66666666666667;-0.9848078;1.673648;-0.6616141;1.77782;0.9848077;1.673648;0.8091056;1.681924;
637949618064029870;1305.865;20;5;1.5;1.1;2;1599;0.938086303939963;0.8660256;1;0.6370223;1.309699;-0.9848078;1.673648;-0.6616141;1.77782;
637949618074022121;1306.864;20;5;1.5;1.1;2;1000;1.5;-0.6427882;2.266044;-0.3604857;2.17239;0.8660256;1;0.6370223;1.309699;
637949618083024145;1307.764;20;5;1.5;1.1;2;900;1.66666666666667;0.3420205;0.5603075;0.1780629;0.7332168;-0.6427882;2.266044;-0.3604857;2.17239;
637949618775475543;1377.009;20;6;4.5;0.1;2.2;1299;3.46420323325635;-0.3762217;0.4663379;-0.3805242;0.4483304;0;2.6;-0.02832019;2.561923;
637949618797460495;1379.208;20;6;4.5;0.1;2.2;2199;2.04638472032742;0.7070663;2.342649;0.7113643;2.353778;-0.3762217;0.4663379;-0.3805242;0.4483304;
637949618812453867;1380.708;20;6;4.5;0.1;2.2;1499;3.00200133422282;-0.9526277;0.9499994;-0.9291288;0.9929213;0.7070663;2.342649;0.7113643;2.353778;
637949618829447694;1382.407;20;6;4.5;0.1;2.2;1699;2.64861683343143;1.083289;1.691013;1.052881;1.729063;-0.9526277;0.9499994;-0.9291288;0.9929213;
637949618840440167;1383.506;20;6;4.5;0.1;2.2;1100;4.09090909090909;-1.083289;1.691012;-1.069191;1.685081;1.083289;1.691013;1.052881;1.729063;
637949618864435569;1385.905;20;6;4.5;0.1;2.2;2399;1.87578157565652;0.9526281;0.9500003;0.936485;0.9680108;-1.083289;1.691012;-1.069191;1.685081;
637949618890531439;1388.515;20;6;4.5;0.1;2.2;2610;1.72413793103448;-0.7070671;2.342648;-0.7019011;2.32281;0.9526281;0.9500003;0.936485;0.9680108;
637949618909525717;1390.415;20;6;4.5;0.1;2.2;1900;2.36842105263158;0.3762226;0.4663382;0.3421387;0.5005184;-0.7070671;2.342648;-0.7019011;2.32281;
637949618935511567;1393.013;20;6;4;0.1;1.4;1199;3.33611342785655;-0.2394138;0.8422151;-0.2482569;0.8359957;0;2.2;0.01702206;2.17766;
637949618945511840;1394.013;20;6;4;0.1;1.4;1000;4;0.4499513;2.036231;0.4222068;2.013561;-0.2394138;0.8422151;-0.2482569;0.8359957;
637949618959500646;1395.412;20;6;4;0.1;1.4;1399;2.85918513223731;-0.6062176;1.15;-0.5809973;1.174261;0.4499513;2.036231;0.4222068;2.013561;
637949618973493797;1396.811;20;6;4;0.1;1.4;1399;2.85918513223731;0.6893654;1.621554;0.6488338;1.626493;-0.6062176;1.15;-0.5809973;1.174261;
637949618985486496;1398.011;20;6;4;0.1;1.4;1200;3.33333333333333;-0.6893655;1.621553;-0.6581669;1.631814;0.6893654;1.621554;0.6488338;1.626493;
637949618997482510;1399.21;20;6;4;0.1;1.4;1199;3.33611342785655;0.6062179;1.15;0.6026757;1.184761;-0.6893655;1.621553;-0.6581669;1.631814;
637949619020472877;1401.509;20;6;4;0.1;1.4;2299;1.73988690735102;-0.4499517;2.036231;-0.4331796;2.03094;0.6062179;1.15;0.6026757;1.184761;
637949619032465573;1402.708;20;6;4;0.1;1.4;1200;3.33333333333333;0.2394144;0.8422153;0.1997481;0.8616921;-0.4499517;2.036231;-0.4331796;2.03094;
637949619049460107;1404.408;20;6;2.5;0.3;1.4;900;2.77777777777778;-0.2394138;0.8422151;-0.1928366;0.9397459;0;2.2;0.03363541;2.201182;
637949619057562553;1405.218;20;6;2.5;0.3;1.4;811;3.0826140567201;0.4499513;2.036231;0.369002;2.060455;-0.2394138;0.8422151;-0.1928366;0.9397459;
637949619067556805;1406.218;20;6;2.5;0.3;1.4;1000;2.5;-0.6062176;1.15;-0.5579196;1.256553;0.4499513;2.036231;0.369002;2.060455;
637949619074558382;1406.918;20;6;2.5;0.3;1.4;700;3.57142857142857;0.6893654;1.621554;0.6776656;1.592837;-0.6062176;1.15;-0.5579196;1.256553;
637949619086561084;1408.118;20;6;2.5;0.3;1.4;1200;2.08333333333333;-0.6893655;1.621553;-0.6807109;1.582879;0.6893654;1.621554;0.6776656;1.592837;
637949619096543328;1409.116;20;6;2.5;0.3;1.4;999;2.5025025025025;0.6062179;1.15;0.5779187;1.275964;-0.6893655;1.621553;-0.6807109;1.582879;
637949619110536476;1410.516;20;6;2.5;0.3;1.4;1400;1.78571428571429;-0.4499517;2.036231;-0.3896393;2.013728;0.6062179;1.15;0.5779187;1.275964;
637949619121648978;1411.627;20;6;2.5;0.3;1.4;1111;2.25022502250225;0.2394144;0.8422153;0.2224027;0.9238276;-0.4499517;2.036231;-0.3896393;2.013728;
637949619152635955;1414.725;20;6;3.5;0.2;2;999;3.5035035035035;-0.3420197;0.5603072;-0.2788164;0.5848374;0;2.5;-0.04089753;2.441626;
637949619162628206;1415.725;20;6;3.5;0.2;2;1000;3.5;0.6427875;2.266045;0.5802287;2.330561;-0.3420197;0.5603072;-0.2788164;0.5848374;
637949619172620450;1416.724;20;6;3.5;0.2;2;999;3.5035035035035;-0.8660251;0.9999995;-0.7911798;0.9950863;0.6427875;2.266045;0.5802287;2.330561;
637949619182912768;1417.76;20;6;3.5;0.2;2;1036;3.37837837837838;0.9848077;1.673648;0.894217;1.634249;-0.8660251;0.9999995;-0.7911798;0.9950863;
637949619196615853;1419.123;20;6;3.5;0.2;2;1363;2.56786500366838;-0.9848078;1.673648;-0.9499984;1.669537;0.9848077;1.673648;0.894217;1.634249;
637949619210599000;1420.522;20;6;3.5;0.2;2;1399;2.50178699070765;0.8660256;1;0.8360813;1.051951;-0.9848078;1.673648;-0.9499984;1.669537;
637949619221601475;1421.622;20;6;3.5;0.2;2;1100;3.18181818181818;-0.6427882;2.266044;-0.5843748;2.258815;0.8660256;1;0.8360813;1.051951;
637949619232593950;1422.722;20;6;3.5;0.2;2;1100;3.18181818181818;0.3420205;0.5603075;0.3143146;0.5511901;-0.6427882;2.266044;-0.5843748;2.258815;
637949619254588904;1424.921;20;6;3;0.2;1.4;1000;3;-0.2394138;0.8422151;-0.1940556;0.8715347;0;2.2;0.002614566;2.202117;
637949619275583628;1427.02;20;6;3;0.2;1.4;2099;1.4292520247737;0.4499513;2.036231;0.4274051;2.007713;-0.2394138;0.8422151;-0.1940556;0.8715347;
637949619286676124;1428.13;20;6;3;0.2;1.4;1110;2.7027027027027;-0.6062176;1.15;-0.5376038;1.148637;0.4499513;2.036231;0.4274051;2.007713;
637949619296678375;1429.13;20;6;3;0.2;1.4;1000;3;0.6893654;1.621554;0.6282277;1.671382;-0.6062176;1.15;-0.5376038;1.148637;
637949619307670849;1430.229;20;6;3;0.2;1.4;1099;2.72975432211101;-0.6893655;1.621553;-0.6466898;1.635327;0.6893654;1.621554;0.6282277;1.671382;
637949619316662874;1431.129;20;6;3;0.2;1.4;900;3.33333333333333;0.6062179;1.15;0.5808771;1.20413;-0.6893655;1.621553;-0.6466898;1.635327;
637949619327655348;1432.228;20;6;3;0.2;1.4;1099;2.72975432211101;-0.4499517;2.036231;-0.4212007;2.031997;0.6062179;1.15;0.5808771;1.20413;
637949619351655344;1434.627;20;6;3;0.2;1.4;2399;1.25052105043768;0.2394144;0.8422153;0.194169;0.919832;-0.4499517;2.036231;-0.4212007;2.031997;
637949619369646235;1436.426;20;6;2;0.6;1.8;900;2.22222222222222;-0.3078177;0.6542765;-0.2088758;0.9039758;0;2.4;0.001356549;2.207954;
637949619379638484;1437.426;20;6;2;0.6;1.8;1000;2;0.5785087;2.18944;0.4155037;2.073968;-0.3078177;0.6542765;-0.2088758;0.9039758;
637949619389630734;1438.425;20;6;2;0.6;1.8;1000;2;-0.7794226;1.05;-0.5404382;1.210354;0.5785087;2.18944;0.4155037;2.073968;
637949619397631726;1439.225;20;6;2;0.6;1.8;800;2.5;0.8863269;1.656283;0.7275409;1.680539;-0.7794226;1.05;-0.5404382;1.210354;
637949619418732731;1441.335;20;6;2;0.6;1.8;2110;0.947867298578199;-0.8863271;1.656283;-0.6358274;1.599295;0.8863269;1.656283;0.7275409;1.680539;
637949619427724751;1442.234;20;6;2;0.6;1.8;900;2.22222222222222;0.779423;1.05;0.5923654;1.17783;-0.8863271;1.656283;-0.6358274;1.599295;
637949619436726778;1443.135;20;6;2;0.6;1.8;901;2.21975582685905;-0.5785094;2.18944;-0.4029622;2.119875;0.779423;1.05;0.5923654;1.17783;
637949619446729028;1444.135;20;6;2;0.6;1.8;1000;2;0.3078185;0.6542768;0.2442319;0.8948293;-0.5785094;2.18944;-0.4029622;2.119875;
637949619462712625;1445.733;20;6;1.5;1.1;2;799;1.87734668335419;-0.3420197;0.5603072;-0.2456053;0.9842227;0;2.5;-0.02341585;2.165697;
637949619470704424;1446.533;20;6;1.5;1.1;2;800;1.875;0.6427875;2.266045;0.4551011;2.037695;-0.3420197;0.5603072;-0.2456053;0.9842227;
637949619477695999;1447.232;20;6;1.5;1.1;2;699;2.14592274678112;-0.8660251;0.9999995;-0.6112434;1.264683;0.6427875;2.266045;0.4551011;2.037695;
637949619486698025;1448.132;20;6;1.5;1.1;2;900;1.66666666666667;0.9848077;1.673648;0.671936;1.744907;-0.8660251;0.9999995;-0.6112434;1.264683;
637949619500691175;1449.531;20;6;1.5;1.1;2;1399;1.07219442458899;-0.9848078;1.673648;-0.5856353;1.713153;0.9848077;1.673648;0.671936;1.744907;
637949619523686353;1451.83;20;6;1.5;1.1;2;2299;0.652457590256633;0.8660256;1;0.4872606;1.347778;-0.9848078;1.673648;-0.5856353;1.713153;
637949619533678600;1452.83;20;6;1.5;1.1;2;1000;1.5;-0.6427882;2.266044;-0.2982002;2.042559;0.8660256;1;0.4872606;1.347778;
637949619542780648;1453.74;20;6;1.5;1.1;2;910;1.64835164835165;0.3420205;0.5603075;0.1460766;0.9458743;-0.6427882;2.266044;-0.2982002;2.042559;
637949620418048323;1541.266;20;7;2.5;0.3;1.4;1199;2.08507089241034;-0.2394138;0.8422151;-0.2160423;0.8982788;0;2.2;-0.01080297;2.160276;
637949620441033496;1543.565;20;7;2.5;0.3;1.4;2299;1.08742931709439;0.4499513;2.036231;0.4514449;1.981774;-0.2394138;0.8422151;-0.2160423;0.8982788;
637949620452025969;1544.665;20;7;2.5;0.3;1.4;1100;2.27272727272727;-0.6062176;1.15;-0.6041132;1.153175;0.4499513;2.036231;0.4514449;1.981774;
637949620463028447;1545.764;20;7;2.5;0.3;1.4;1099;2.27479526842584;0.6893654;1.621554;0.6018452;1.630987;-0.6062176;1.15;-0.6041132;1.153175;
637949620474020916;1546.864;20;7;2.5;0.3;1.4;1099;2.27479526842584;-0.6893655;1.621553;-0.6671342;1.671826;0.6893654;1.621554;0.6018452;1.630987;
637949620485013395;1547.963;20;7;2.5;0.3;1.4;1100;2.27272727272727;0.6062179;1.15;0.6324727;1.175478;-0.6893655;1.621553;-0.6671342;1.671826;
637949620498006320;1549.263;20;7;2.5;0.3;1.4;1300;1.92307692307692;-0.4499517;2.036231;-0.4010496;2.096396;0.6062179;1.15;0.6324727;1.175478;
637949620510009021;1550.462;20;7;2.5;0.3;1.4;1199;2.08507089241034;0.2394144;0.8422153;0.2149035;0.9085261;-0.4499517;2.036231;-0.4010496;2.096396;
637949620539992662;1553.461;20;7;4;0.1;1.4;1599;2.50156347717323;-0.2394138;0.8422151;-0.2351933;0.8441325;0;2.2;0.02233612;2.178765;
637949620562086347;1555.671;20;7;4;0.1;1.4;2210;1.80995475113122;0.4499513;2.036231;0.4359562;2.005535;-0.2394138;0.8422151;-0.2351933;0.8441325;
637949620574079044;1556.87;20;7;4;0.1;1.4;1199;3.33611342785655;-0.6062176;1.15;-0.6211035;1.155004;0.4499513;2.036231;0.4359562;2.005535;
637949620587081971;1558.17;20;7;4;0.1;1.4;1299;3.07929176289453;0.6893654;1.621554;0.6742336;1.619058;-0.6062176;1.15;-0.6211035;1.155004;
637949620602065345;1559.669;20;7;4;0.1;1.4;1499;2.66844563042028;-0.6893655;1.621553;-0.6637271;1.604263;0.6893654;1.621554;0.6742336;1.619058;
637949620615068271;1560.968;20;7;4;0.1;1.4;1299;3.07929176289453;0.6062179;1.15;0.575273;1.164387;-0.6893655;1.621553;-0.6637271;1.604263;
637949620628061197;1562.268;20;7;4;0.1;1.4;1299;3.07929176289453;-0.4499517;2.036231;-0.4669076;2.007328;0.6062179;1.15;0.575273;1.164387;
637949620643054568;1563.767;20;7;4;0.1;1.4;1499;2.66844563042028;0.2394144;0.8422153;0.2121326;0.8836566;-0.4499517;2.036231;-0.4669076;2.007328;
637949620659038165;1565.366;20;7;1.5;1.1;2;800;1.875;-0.3420197;0.5603072;-0.2471998;1.023645;0;2.5;0.06430398;2.211974;
637949620667149993;1566.177;20;7;1.5;1.1;2;811;1.84956843403206;0.6427875;2.266045;0.4823703;1.852092;-0.3420197;0.5603072;-0.2471998;1.023645;
637949620677142243;1567.177;20;7;1.5;1.1;2;1000;1.5;-0.8660251;0.9999995;-0.5000231;1.33852;0.6427875;2.266045;0.4823703;1.852092;
637949620687144493;1568.176;20;7;1.5;1.1;2;999;1.5015015015015;0.9848077;1.673648;0.5463241;1.721664;-0.8660251;0.9999995;-0.5000231;1.33852;
637949620695136293;1568.976;20;7;1.5;1.1;2;800;1.875;-0.9848078;1.673648;-0.7847814;1.842777;0.9848077;1.673648;0.5463241;1.721664;
637949620705138543;1569.975;20;7;1.5;1.1;2;1000;1.5;0.8660256;1;0.6203511;1.350245;-0.9848078;1.673648;-0.7847814;1.842777;
637949620726133272;1572.075;20;7;1.5;1.1;2;2100;0.714285714285714;-0.6427882;2.266044;-0.3688813;2.07599;0.8660256;1;0.6203511;1.350245;
637949620735125296;1572.974;20;7;1.5;1.1;2;899;1.66852057842047;0.3420205;0.5603075;0.2202299;0.9805769;-0.6427882;2.266044;-0.3688813;2.07599;
637949620766102264;1576.073;20;7;4.5;0.1;2.2;1699;2.64861683343143;-0.3762217;0.4663379;-0.3720735;0.494086;0;2.6;-0.01338366;2.590431;
637949620783096092;1577.772;20;7;4.5;0.1;2.2;1699;2.64861683343143;0.7070663;2.342649;0.6757909;2.328173;-0.3762217;0.4663379;-0.3720735;0.494086;
637949620800429996;1579.512;20;7;4.5;0.1;2.2;1740;2.58620689655172;-0.9526277;0.9499994;-0.9031013;0.9568835;0.7070663;2.342649;0.6757909;2.328173;
637949620814189547;1580.881;20;7;4.5;0.1;2.2;1369;3.28707085463842;1.083289;1.691013;1.0966;1.688932;-0.9526277;0.9499994;-0.9031013;0.9568835;
637949620830183148;1582.48;20;7;4.5;0.1;2.2;1599;2.81425891181989;-1.083289;1.691012;-1.049306;1.677839;1.083289;1.691013;1.0966;1.688932;
637949620844186317;1583.88;20;7;4.5;0.1;2.2;1400;3.21428571428571;0.9526281;0.9500003;0.9029166;0.9519402;-1.083289;1.691012;-1.049306;1.677839;
637949620861176331;1585.579;20;7;4.5;0.1;2.2;1699;2.64861683343143;-0.7070671;2.342648;-0.6857774;2.328631;0.9526281;0.9500003;0.9029166;0.9519402;
637949620875169477;1586.979;20;7;4.5;0.1;2.2;1400;3.21428571428571;0.3762226;0.4663382;0.3416466;0.5021311;-0.7070671;2.342648;-0.6857774;2.328631;
637949620895153978;1588.978;20;7;2;0.6;1.8;899;2.22469410456062;-0.3078177;0.6542765;-0.2134694;0.8234926;0;2.4;0.06721042;2.265411;
637949620904146002;1589.877;20;7;2;0.6;1.8;899;2.22469410456062;0.5785087;2.18944;0.5644705;2.056575;-0.3078177;0.6542765;-0.2134694;0.8234926;
637949620913148029;1590.776;20;7;2;0.6;1.8;900;2.22222222222222;-0.7794226;1.05;-0.5944626;1.179098;0.5785087;2.18944;0.5644705;2.056575;
637949620932142308;1592.676;20;7;2;0.6;1.8;1900;1.05263157894737;0.8863269;1.656283;0.6745096;1.564033;-0.7794226;1.05;-0.5944626;1.179098;
637949620944135002;1593.875;20;7;2;0.6;1.8;1199;1.66805671392827;-0.8863271;1.656283;-0.6325043;1.744023;0.8863269;1.656283;0.6745096;1.564033;
637949620953237052;1594.786;20;7;2;0.6;1.8;911;2.1953896816685;0.779423;1.05;0.6609583;1.185911;-0.8863271;1.656283;-0.6325043;1.744023;
637949620963239306;1595.786;20;7;2;0.6;1.8;1000;2;-0.5785094;2.18944;-0.3916433;2.108531;0.779423;1.05;0.6609583;1.185911;
637949620973231552;1596.785;20;7;2;0.6;1.8;999;2.002002002002;0.3078185;0.6542768;0.3187216;0.9016956;-0.5785094;2.18944;-0.3916433;2.108531;
637949620992225829;1598.684;20;7;3;0.2;1.4;1000;3;-0.2394138;0.8422151;-0.2188824;0.9006873;0;2.2;0.01016498;2.132682;
637949621001217850;1599.584;20;7;3;0.2;1.4;900;3.33333333333333;0.4499513;2.036231;0.4006004;2.074592;-0.2394138;0.8422151;-0.2188824;0.9006873;
637949621014210775;1600.883;20;7;3;0.2;1.4;1299;2.3094688221709;-0.6062176;1.15;-0.5890881;1.201616;0.4499513;2.036231;0.4006004;2.074592;
637949621024203023;1601.882;20;7;3;0.2;1.4;999;3.003003003003;0.6893654;1.621554;0.6822951;1.667302;-0.6062176;1.15;-0.5890881;1.201616;
637949621046197970;1604.081;20;7;3;0.2;1.4;2199;1.36425648021828;-0.6893655;1.621553;-0.6537074;1.637672;0.6893654;1.621554;0.6822951;1.667302;
637949621057190447;1605.181;20;7;3;0.2;1.4;1100;2.72727272727273;0.6062179;1.15;0.5964203;1.211694;-0.6893655;1.621553;-0.6537074;1.637672;
637949621067192700;1606.181;20;7;3;0.2;1.4;1000;3;-0.4499517;2.036231;-0.4124905;2.051694;0.6062179;1.15;0.5964203;1.211694;
637949621079182669;1607.381;20;7;3;0.2;1.4;1200;2.5;0.2394144;0.8422153;0.2341729;0.8963062;-0.4499517;2.036231;-0.4124905;2.051694;
637949621103282293;1609.79;20;7;3.5;0.2;2;1299;2.69438029253272;-0.3420197;0.5603072;-0.3281375;0.6584885;0;2.5;0.00355627;2.455643;
637949621116273950;1611.089;20;7;3.5;0.2;2;1299;2.69438029253272;0.6427875;2.266045;0.5692238;2.269734;-0.3420197;0.5603072;-0.3281375;0.6584885;
637949621130275370;1612.489;20;7;3.5;0.2;2;1400;2.5;-0.8660251;0.9999995;-0.8251587;1.049419;0.6427875;2.266045;0.5692238;2.269734;
637949621142376192;1613.699;20;7;3.5;0.2;2;1210;2.89256198347107;0.9848077;1.673648;0.9214336;1.663884;-0.8660251;0.9999995;-0.8251587;1.049419;
637949621153371147;1614.799;20;7;3.5;0.2;2;1099;3.18471337579618;-0.9848078;1.673648;-0.9345331;1.669322;0.9848077;1.673648;0.9214336;1.663884;
637949621165370577;1615.998;20;7;3.5;0.2;2;1200;2.91666666666667;0.8660256;1;0.8240533;1.05219;-0.9848078;1.673648;-0.9345331;1.669322;
637949621176359553;1617.098;20;7;3.5;0.2;2;1099;3.18471337579618;-0.6427882;2.266044;-0.5982282;2.215416;0.8660256;1;0.8240533;1.05219;
637949621188350477;1618.297;20;7;3.5;0.2;2;1200;2.91666666666667;0.3420205;0.5603075;0.319036;0.5629035;-0.6427882;2.266044;-0.5982282;2.215416;
