637949639351496826;114.9028;21;0;2;0.6;1.8;1110;1.8018018018018;-0.3078177;0.6542765;-0.2626603;0.8269027;0;2.4;0.01238697;2.348712;
637949639361491128;115.9025;21;0;2;0.6;1.8;1000;2;0.5785087;2.18944;0.5644537;2.148201;-0.3078177;0.6542765;-0.2626603;0.8269027;
637949639371483380;116.902;21;0;2;0.6;1.8;999;2.002002002002;-0.7794226;1.05;-0.6260712;1.168314;0.5785087;2.18944;0.5644537;2.148201;
637949639378474954;117.6016;21;0;2;0.6;1.8;700;2.85714285714286;0.8863269;1.656283;0.6937257;1.663337;-0.7794226;1.05;-0.6260712;1.168314;
637949639389477430;118.7011;21;0;2;0.6;1.8;1100;1.81818181818182;-0.8863271;1.656283;-0.7829487;1.678237;0.8863269;1.656283;0.6937257;1.663337;
637949639399469679;119.7007;21;0;2;0.6;1.8;1000;2;0.779423;1.05;0.6293628;1.191271;-0.8863271;1.656283;-0.7829487;1.678237;
637949639408471706;120.6004;21;0;2;0.6;1.8;900;2.22222222222222;-0.5785094;2.18944;-0.4454734;2.06107;0.779423;1.05;0.6293628;1.191271;
637949639419464179;121.7;21;0;2;0.6;1.8;1100;1.81818181818182;0.3078185;0.6542768;0.3090281;0.8392411;-0.5785094;2.18944;-0.4454734;2.06107;
637949639448450696;124.5984;21;0;3.5;0.2;2;1399;2.50178699070765;-0.3420197;0.5603072;-0.3290085;0.6207439;0;2.5;0.05848141;2.466996;
637949639457742793;125.5353;21;0;3.5;0.2;2;937;3.73532550693703;0.6427875;2.266045;0.569772;2.197803;-0.3420197;0.5603072;-0.3290085;0.6207439;
637949639469545455;126.7085;21;0;3.5;0.2;2;1173;2.98380221653879;-0.8660251;0.9999995;-0.8242928;1.009213;0.6427875;2.266045;0.569772;2.197803;
637949639482538375;128.0079;21;0;3.5;0.2;2;1299;2.69438029253272;0.9848077;1.673648;0.9255193;1.673207;-0.8660251;0.9999995;-0.8242928;1.009213;
637949639494541076;129.2077;21;0;3.5;0.2;2;1200;2.91666666666667;-0.9848078;1.673648;-1.008552;1.677505;0.9848077;1.673648;0.9255193;1.673207;
637949639509534449;130.7071;21;0;3.5;0.2;2;1499;2.33488992661775;0.8660256;1;0.8486;1.036158;-0.9848078;1.673648;-1.008552;1.677505;
637949639537520749;133.5055;21;0;3.5;0.2;2;2798;1.25089349535382;-0.6427882;2.266044;-0.5858337;2.234309;0.8660256;1;0.8486;1.036158;
637949639552514124;135.0047;21;0;3.5;0.2;2;1499;2.33488992661775;0.3420205;0.5603075;0.2798599;0.5963122;-0.6427882;2.266044;-0.5858337;2.234309;
637949639573508851;137.1037;21;0;1.5;1.1;2;999;1.5015015015015;-0.3420197;0.5603072;-0.2401047;0.936767;0;2.5;0.0002748817;2.380899;
637949639582610898;138.0146;21;0;1.5;1.1;2;911;1.64654226125137;0.6427875;2.266045;0.5205668;2.147852;-0.3420197;0.5603072;-0.2401047;0.936767;
637949639592603148;139.0142;21;0;1.5;1.1;2;1000;1.5;-0.8660251;0.9999995;-0.6528051;1.174067;0.6427875;2.266045;0.5205668;2.147852;
637949639602595399;140.0136;21;0;1.5;1.1;2;999;1.5015015015015;0.9848077;1.673648;0.6225083;1.714112;-0.8660251;0.9999995;-0.6528051;1.174067;
637949639621589665;141.9127;21;0;1.5;1.1;2;1899;0.789889415481833;-0.9848078;1.673648;-0.6853803;1.771747;0.9848077;1.673648;0.6225083;1.714112;
637949639632582147;143.012;21;0;1.5;1.1;2;1099;1.36487716105551;0.8660256;1;0.721351;1.248848;-0.9848078;1.673648;-0.6853803;1.771747;
637949639643584619;144.1121;21;0;1.5;1.1;2;1100;1.36363636363636;-0.6427882;2.266044;-0.4766989;2.148314;0.8660256;1;0.721351;1.248848;
637949639656580537;145.411;21;0;1.5;1.1;2;1299;1.15473441108545;0.3420205;0.5603075;0.3058508;0.8482064;-0.6427882;2.266044;-0.4766989;2.148314;
637949639677560340;147.5101;21;0;2.5;0.3;1.4;1099;2.27479526842584;-0.2394138;0.8422151;-0.2047033;0.9063092;0;2.2;-0.02214734;2.177026;
637949639690563267;148.8098;21;0;2.5;0.3;1.4;1300;1.92307692307692;0.4499513;2.036231;0.3944687;1.979268;-0.2394138;0.8422151;-0.2047033;0.9063092;
637949639704545874;150.2087;21;0;2.5;0.3;1.4;1399;1.78699070764832;-0.6062176;1.15;-0.4789205;1.180378;0.4499513;2.036231;0.3944687;1.979268;
637949639716545632;151.4081;21;0;2.5;0.3;1.4;1199;2.08507089241034;0.6893654;1.621554;0.5995152;1.613408;-0.6062176;1.15;-0.4789205;1.180378;
637949639727656120;152.5189;21;0;2.5;0.3;1.4;1111;2.25022502250225;-0.6893655;1.621553;-0.6311203;1.60196;0.6893654;1.621554;0.5995152;1.613408;
637949639738642424;153.6182;21;0;2.5;0.3;1.4;1099;2.27479526842584;0.6062179;1.15;0.5734792;1.194216;-0.6893655;1.621553;-0.6311203;1.60196;
637949639750641664;154.8177;21;0;2.5;0.3;1.4;1200;2.08333333333333;-0.4499517;2.036231;-0.3784596;1.977119;0.6062179;1.15;0.5734792;1.194216;
637949639759632014;155.7173;21;0;2.5;0.3;1.4;900;2.77777777777778;0.2394144;0.8422153;0.2095473;0.9391731;-0.4499517;2.036231;-0.3784596;1.977119;
637949639783627518;158.1163;21;0;4.5;0.1;2.2;1300;3.46153846153846;-0.3762217;0.4663379;-0.3779559;0.4607109;0;2.6;0.001062389;2.57028;
637949639793999851;159.1613;21;0;4.5;0.1;2.2;1045;4.30622009569378;0.7070663;2.342649;0.7509183;2.355826;-0.3762217;0.4663379;-0.3779559;0.4607109;
637949639805612463;160.3153;21;0;4.5;0.1;2.2;1154;3.89948006932409;-0.9526277;0.9499994;-0.958779;0.9695833;0.7070663;2.342649;0.7509183;2.355826;
637949639818615396;161.6148;21;0;4.5;0.1;2.2;1300;3.46153846153846;1.083289;1.691013;1.067376;1.675189;-0.9526277;0.9499994;-0.958779;0.9695833;
637949639830608088;162.8143;21;0;4.5;0.1;2.2;1199;3.75312760633862;-1.083289;1.691012;-1.094797;1.701844;1.083289;1.691013;1.067376;1.675189;
637949639853703291;165.1241;21;0;4.5;0.1;2.2;2310;1.94805194805195;0.9526281;0.9500003;0.9176046;0.9856734;-1.083289;1.691012;-1.094797;1.701844;
637949639874688012;167.223;21;0;4.5;0.1;2.2;2099;2.14387803716055;-0.7070671;2.342648;-0.6914773;2.315168;0.9526281;0.9500003;0.9176046;0.9856734;
637949639888691162;168.6223;21;0;4.5;0.1;2.2;1399;3.21658327376698;0.3762226;0.4663382;0.3436915;0.4941598;-0.7070671;2.342648;-0.6914773;2.315168;
637949639920668367;171.8211;21;0;3;0.2;1.4;1500;2;-0.2394138;0.8422151;-0.2435717;0.8617245;0;2.2;0.004047301;2.148772;
637949639931670840;172.9206;21;0;3;0.2;1.4;1100;2.72727272727273;0.4499513;2.036231;0.38919;1.9781;-0.2394138;0.8422151;-0.2435717;0.8617245;
637949639941663085;173.92;21;0;3;0.2;1.4;999;3.003003003003;-0.6062176;1.15;-0.5823304;1.176979;0.4499513;2.036231;0.38919;1.9781;
637949639952655560;175.0194;21;0;3;0.2;1.4;1099;2.72975432211101;0.6893654;1.621554;0.6491584;1.627651;-0.6062176;1.15;-0.5823304;1.176979;
637949639964658261;176.2191;21;0;3;0.2;1.4;1200;2.5;-0.6893655;1.621553;-0.66622;1.637823;0.6893654;1.621554;0.6491584;1.627651;
637949639974650503;177.2185;21;0;3;0.2;1.4;999;3.003003003003;0.6062179;1.15;0.6411392;1.191326;-0.6893655;1.621553;-0.66622;1.637823;
637949639985642986;178.318;21;0;3;0.2;1.4;1100;2.72727272727273;-0.4499517;2.036231;-0.4664507;1.999081;0.6062179;1.15;0.6411392;1.191326;
637949639998635907;179.6175;21;0;3;0.2;1.4;1299;2.3094688221709;0.2394144;0.8422153;0.2125783;0.8193119;-0.4499517;2.036231;-0.4664507;1.999081;
637949640022741338;182.0274;21;0;4;0.1;1.4;1399;2.85918513223731;-0.2394138;0.8422151;-0.2329919;0.8652692;0;2.2;0.0200348;2.173998;
637949640045726507;184.3262;21;0;4;0.1;1.4;2299;1.73988690735102;0.4499513;2.036231;0.429719;2.020658;-0.2394138;0.8422151;-0.2329919;0.8652692;
637949640063715270;186.1252;21;0;4;0.1;1.4;1799;2.22345747637576;-0.6062176;1.15;-0.5735326;1.164071;0.4499513;2.036231;0.429719;2.020658;
637949640077708420;187.5245;21;0;4;0.1;1.4;1399;2.85918513223731;0.6893654;1.621554;0.6407422;1.624029;-0.6062176;1.15;-0.5735326;1.164071;
637949640097696875;189.5238;21;0;4;0.1;1.4;1999;2.00100050025012;-0.6893655;1.621553;-0.6590359;1.613751;0.6893654;1.621554;0.6407422;1.624029;
637949640122684859;192.0226;21;0;4;0.1;1.4;2499;1.60064025610244;0.6062179;1.15;0.5937473;1.186391;-0.6893655;1.621553;-0.6590359;1.613751;
637949640136798038;193.4332;21;0;4;0.1;1.4;1411;2.83486888731396;-0.4499517;2.036231;-0.4306391;2.014877;0.6062179;1.15;0.5937473;1.186391;
637949640148790729;194.6327;21;0;4;0.1;1.4;1200;3.33333333333333;0.2394144;0.8422153;0.2163376;0.8429637;-0.4499517;2.036231;-0.4306391;2.014877;
637949641208055909;300.5612;21;1;4;0.1;1.4;1300;3.07692307692308;-0.2394138;0.8422151;-0.2215116;0.8530786;0;2.2;-0.003546336;2.187515;
637949641221055347;301.8606;21;1;4;0.1;1.4;1299;3.07929176289453;0.4499513;2.036231;0.4453221;2.054198;-0.2394138;0.8422151;-0.2215116;0.8530786;
637949641235052031;303.2598;21;1;4;0.1;1.4;1399;2.85918513223731;-0.6062176;1.15;-0.5653315;1.141944;0.4499513;2.036231;0.4453221;2.054198;
637949641246054511;304.3605;21;1;4;0.1;1.4;1101;3.6330608537693;0.6893654;1.621554;0.6425233;1.621573;-0.6062176;1.15;-0.5653315;1.141944;
637949641261037880;305.8586;21;1;4;0.1;1.4;1498;2.67022696929239;-0.6893655;1.621553;-0.6549921;1.585243;0.6893654;1.621554;0.6425233;1.621573;
637949641274030803;307.1581;21;1;4;0.1;1.4;1299;3.07929176289453;0.6062179;1.15;0.6001567;1.181386;-0.6893655;1.621553;-0.6549921;1.585243;
637949641293025079;309.0573;21;1;4;0.1;1.4;1899;2.10637177461822;-0.4499517;2.036231;-0.4445207;1.989401;0.6062179;1.15;0.6001567;1.181386;
637949641308128478;310.5676;21;1;4;0.1;1.4;1510;2.64900662251656;0.2394144;0.8422153;0.2034369;0.8155708;-0.4499517;2.036231;-0.4445207;1.989401;
637949641349107701;314.6657;21;1;4.5;0.1;2.2;2399;1.87578157565652;-0.3762217;0.4663379;-0.3797871;0.4572272;0;2.6;0.00752194;2.59902;
637949641368101976;316.5649;21;1;4.5;0.1;2.2;1899;2.3696682464455;0.7070663;2.342649;0.6911841;2.313398;-0.3762217;0.4663379;-0.3797871;0.4572272;
637949641387096252;318.4641;21;1;4.5;0.1;2.2;1899;2.3696682464455;-0.9526277;0.9499994;-0.9216025;0.9569576;0.7070663;2.342649;0.6911841;2.313398;
637949641404080077;320.1631;21;1;4.5;0.1;2.2;1699;2.64861683343143;1.083289;1.691013;1.051554;1.692311;-0.9526277;0.9499994;-0.9216025;0.9569576;
637949641429175723;322.6731;21;1;4.5;0.1;2.2;2510;1.79282868525896;-1.083289;1.691012;-1.085999;1.647696;1.083289;1.691013;1.051554;1.692311;
637949641448200000;324.5726;21;1;4.5;0.1;2.2;1900;2.36842105263158;0.9526281;0.9500003;0.9383382;0.9496136;-1.083289;1.691012;-1.085999;1.647696;
637949641468171687;326.5719;21;1;4.5;0.1;2.2;1999;2.25112556278139;-0.7070671;2.342648;-0.6976784;2.330498;0.9526281;0.9500003;0.9383382;0.9496136;
637949641485157830;328.2708;21;1;4.5;0.1;2.2;1699;2.64861683343143;0.3762226;0.4663382;0.3838742;0.4821119;-0.7070671;2.342648;-0.6976784;2.330498;
637949641507342823;330.489;21;1;1.5;1.1;2;1108;1.35379061371841;-0.3420197;0.5603072;-0.3093218;0.7544512;0;2.5;0.049939;2.3271;
637949641526243288;332.3797;21;1;1.5;1.1;2;1891;0.793231094658911;0.6427875;2.266045;0.4552783;2.209713;-0.3420197;0.5603072;-0.3093218;0.7544512;
637949641536240412;333.3793;21;1;1.5;1.1;2;1000;1.5;-0.8660251;0.9999995;-0.7393785;1.201265;0.6427875;2.266045;0.4552783;2.209713;
637949641551233783;334.8784;21;1;1.5;1.1;2;1499;1.00066711140761;0.9848077;1.673648;0.6781543;1.810416;-0.8660251;0.9999995;-0.7393785;1.201265;
637949641578219857;337.5774;21;1;1.5;1.1;2;2699;0.555761393108559;-0.9848078;1.673648;-0.6413841;1.709873;0.9848077;1.673648;0.6781543;1.810416;
637949641591212784;338.8767;21;1;1.5;1.1;2;1299;1.15473441108545;0.8660256;1;0.675608;1.147628;-0.9848078;1.673648;-0.6413841;1.709873;
637949641604205704;340.1762;21;1;1.5;1.1;2;1299;1.15473441108545;-0.6427882;2.266044;-0.4065197;2.174126;0.8660256;1;0.675608;1.147628;
637949641619209083;341.676;21;1;1.5;1.1;2;1500;1;0.3420205;0.5603075;0.358015;0.8480737;-0.6427882;2.266044;-0.4065197;2.174126;
637949641645194933;344.2745;21;1;3;0.2;1.4;1400;2.14285714285714;-0.2394138;0.8422151;-0.2470537;0.8224339;0;2.2;0.00764163;2.200722;
637949641657297654;345.4845;21;1;3;0.2;1.4;1210;2.47933884297521;0.4499513;2.036231;0.4132531;2.002986;-0.2394138;0.8422151;-0.2470537;0.8224339;
637949641676291931;347.3839;21;1;3;0.2;1.4;1899;1.57977883096367;-0.6062176;1.15;-0.5688998;1.13572;0.4499513;2.036231;0.4132531;2.002986;
637949641692275528;348.983;21;1;3;0.2;1.4;1599;1.87617260787993;0.6893654;1.621554;0.6338477;1.610554;-0.6062176;1.15;-0.5688998;1.13572;
637949641710269578;350.7822;21;1;3;0.2;1.4;1799;1.66759310728182;-0.6893655;1.621553;-0.6701672;1.574699;0.6893654;1.621554;0.6338477;1.610554;
637949641728263631;352.5815;21;1;3;0.2;1.4;1799;1.66759310728182;0.6062179;1.15;0.5771085;1.125791;-0.6893655;1.621553;-0.6701672;1.574699;
637949641743257004;354.0809;21;1;3;0.2;1.4;1499;2.00133422281521;-0.4499517;2.036231;-0.4306091;2.019423;0.6062179;1.15;0.5771085;1.125791;
637949641756249927;355.3801;21;1;3;0.2;1.4;1299;2.3094688221709;0.2394144;0.8422153;0.2131407;0.8846407;-0.4499517;2.036231;-0.4306091;2.019423;
637949641792235606;358.9788;21;1;2.5;0.3;1.4;2299;1.08742931709439;-0.2394138;0.8422151;-0.2149309;0.9244869;0;2.2;0.02426234;2.15978;
637949641805332507;360.289;21;1;2.5;0.3;1.4;1310;1.90839694656489;0.4499513;2.036231;0.4311562;2.016897;-0.2394138;0.8422151;-0.2149309;0.9244869;
637949641822329074;361.9883;21;1;2.5;0.3;1.4;1699;1.47145379635079;-0.6062176;1.15;-0.5483256;1.119794;0.4499513;2.036231;0.4311562;2.016897;
637949641849315147;364.6869;21;1;2.5;0.3;1.4;2699;0.926268988514265;0.6893654;1.621554;0.6621832;1.618878;-0.6062176;1.15;-0.5483256;1.119794;
637949641870309875;366.7859;21;1;2.5;0.3;1.4;2099;1.19104335397808;-0.6893655;1.621553;-0.6283565;1.520769;0.6893654;1.621554;0.6621832;1.618878;
637949641882302573;367.9853;21;1;2.5;0.3;1.4;1199;2.08507089241034;0.6062179;1.15;0.5651904;1.173216;-0.6893655;1.621553;-0.6283565;1.520769;
637949641894295270;369.1845;21;1;2.5;0.3;1.4;1199;2.08507089241034;-0.4499517;2.036231;-0.3858809;1.975848;0.6062179;1.15;0.5651904;1.173216;
637949641907288196;370.4842;21;1;2.5;0.3;1.4;1300;1.92307692307692;0.2394144;0.8422153;0.2299983;0.9048756;-0.4499517;2.036231;-0.3858809;1.975848;
637949641938275614;373.5831;21;1;2;0.6;1.8;1500;1.33333333333333;-0.3078177;0.6542765;-0.2631882;0.7553337;0;2.4;0.02642242;2.249101;
637949641955380709;375.2933;21;1;2;0.6;1.8;1710;1.16959064327485;0.5785087;2.18944;0.5286567;2.164708;-0.3078177;0.6542765;-0.2631882;0.7553337;
637949641974374985;377.1923;21;1;2;0.6;1.8;1899;1.05318588730911;-0.7794226;1.05;-0.6677598;1.103934;0.5785087;2.18944;0.5286567;2.164708;
637949641987367909;378.4916;21;1;2;0.6;1.8;1299;1.53964588144727;0.8863269;1.656283;0.7862302;1.663677;-0.7794226;1.05;-0.6677598;1.103934;
637949642001361058;379.8913;21;1;2;0.6;1.8;1400;1.42857142857143;-0.8863271;1.656283;-0.8115618;1.632774;0.8863269;1.656283;0.7862302;1.663677;
637949642016354433;381.3904;21;1;2;0.6;1.8;1499;1.33422281521014;0.779423;1.05;0.705848;1.131948;-0.8863271;1.656283;-0.8115618;1.632774;
637949642035348708;383.2895;21;1;2;0.6;1.8;1899;1.05318588730911;-0.5785094;2.18944;-0.5305967;2.101312;0.779423;1.05;0.705848;1.131948;
637949642061334558;385.8882;21;1;2;0.6;1.8;2599;0.769526741054252;0.3078185;0.6542768;0.2559707;0.8569224;-0.5785094;2.18944;-0.5305967;2.101312;
637949642096312429;389.3868;21;1;3.5;0.2;2;1600;2.1875;-0.3420197;0.5603072;-0.30722;0.5874995;0;2.5;-0.0364362;2.446458;
637949642116416953;391.3968;21;1;3.5;0.2;2;2010;1.74129353233831;0.6427875;2.266045;0.6340499;2.243934;-0.3420197;0.5603072;-0.30722;0.5874995;
637949642131410330;392.8961;21;1;3.5;0.2;2;1499;2.33488992661775;-0.8660251;0.9999995;-0.8324499;1.035091;0.6427875;2.266045;0.6340499;2.243934;
637949642142402805;393.9957;21;1;3.5;0.2;2;1100;3.18181818181818;0.9848077;1.673648;1.063981;1.685855;-0.8660251;0.9999995;-0.8324499;1.035091;
637949642163397530;396.0947;21;1;3.5;0.2;2;2099;1.66746069556932;-0.9848078;1.673648;-0.9558765;1.645268;0.9848077;1.673648;1.063981;1.685855;
637949642178380904;397.5938;21;1;3.5;0.2;2;1499;2.33488992661775;0.8660256;1;0.7930739;0.988288;-0.9848078;1.673648;-0.9558765;1.645268;
637949642195374725;399.293;21;1;3.5;0.2;2;1699;2.06003531489111;-0.6427882;2.266044;-0.6393323;2.171834;0.8660256;1;0.7930739;0.988288;
637949642260359352;405.7906;21;1;3.5;0.2;2;6498;0.538627269929209;0.3420205;0.5603075;0.3381407;0.5647357;-0.6427882;2.266044;-0.6393323;2.171834;
637949643041666758;483.9207;21;2;2.5;0.3;1.4;1699;1.47145379635079;-0.2394138;0.8422151;-0.2049485;0.9430667;0;2.2;-0.03116144;2.234009;
637949643051669020;484.9201;21;2;2.5;0.3;1.4;999;2.5025025025025;0.4499513;2.036231;0.4389684;2.039485;-0.2394138;0.8422151;-0.2049485;0.9430667;
637949643061651263;485.9195;21;2;2.5;0.3;1.4;999;2.5025025025025;-0.6062176;1.15;-0.5599898;1.22574;0.4499513;2.036231;0.4389684;2.039485;
637949643071643540;486.9195;21;2;2.5;0.3;1.4;1000;2.5;0.6893654;1.621554;0.7125783;1.573376;-0.6062176;1.15;-0.5599898;1.22574;
637949643083627949;488.1186;21;2;2.5;0.3;1.4;1199;2.08507089241034;-0.6893655;1.621553;-0.6557256;1.63503;0.6893654;1.621554;0.7125783;1.573376;
637949643101735242;489.9286;21;2;2.5;0.3;1.4;1810;1.38121546961326;0.6062179;1.15;0.5230744;1.18854;-0.6893655;1.621553;-0.6557256;1.63503;
637949643114728164;491.2283;21;2;2.5;0.3;1.4;1300;1.92307692307692;-0.4499517;2.036231;-0.3346921;2.035876;0.6062179;1.15;0.5230744;1.18854;
637949643128721312;492.6276;21;2;2.5;0.3;1.4;1399;1.78699070764832;0.2394144;0.8422153;0.2482277;0.8801764;-0.4499517;2.036231;-0.3346921;2.035876;
637949643169700537;496.7256;21;2;3;0.2;1.4;2199;1.36425648021828;-0.2394138;0.8422151;-0.1947164;0.8783655;0;2.2;0.01768381;2.15179;
637949643198697063;499.6245;21;2;3;0.2;1.4;2899;1.03483959986202;0.4499513;2.036231;0.4368741;2.0079;-0.2394138;0.8422151;-0.1947164;0.8783655;
637949643216681109;501.4234;21;2;3;0.2;1.4;1799;1.66759310728182;-0.6062176;1.15;-0.5196044;1.156866;0.4499513;2.036231;0.4368741;2.0079;
637949643230684262;502.8235;21;2;3;0.2;1.4;1400;2.14285714285714;0.6893654;1.621554;0.657083;1.570791;-0.6062176;1.15;-0.5196044;1.156866;
637949643243777203;504.1333;21;2;3;0.2;1.4;1310;2.29007633587786;-0.6893655;1.621553;-0.6275338;1.59662;0.6893654;1.621554;0.657083;1.570791;
637949643257770358;505.5327;21;2;3;0.2;1.4;1399;2.14438884917798;0.6062179;1.15;0.5393013;1.185964;-0.6893655;1.621553;-0.6275338;1.59662;
637949643270773285;506.8321;21;2;3;0.2;1.4;1299;2.3094688221709;-0.4499517;2.036231;-0.401953;2.017331;0.6062179;1.15;0.5393013;1.185964;
637949643289767562;508.7314;21;2;3;0.2;1.4;1899;1.57977883096367;0.2394144;0.8422153;0.2408256;0.8590559;-0.4499517;2.036231;-0.401953;2.017331;
637949643313742957;511.13;21;2;1.5;1.1;2;1199;1.25104253544621;-0.3420197;0.5603072;-0.2369181;0.7707287;0;2.5;0.03725752;2.165417;
637949643325745657;512.3296;21;2;1.5;1.1;2;1200;1.25;0.6427875;2.266045;0.5173322;2.106302;-0.3420197;0.5603072;-0.2369181;0.7707287;
637949643337738356;513.5288;21;2;1.5;1.1;2;1199;1.25104253544621;-0.8660251;0.9999995;-0.6630727;1.151256;0.6427875;2.266045;0.5173322;2.106302;
637949643350731284;514.8284;21;2;1.5;1.1;2;1300;1.15384615384615;0.9848077;1.673648;0.7394688;1.679988;-0.8660251;0.9999995;-0.6630727;1.151256;
637949643361733762;515.9287;21;2;1.5;1.1;2;1100;1.36363636363636;-0.9848078;1.673648;-0.6668733;1.693988;0.9848077;1.673648;0.7394688;1.679988;
637949643371721651;516.9272;21;2;1.5;1.1;2;999;1.5015015015015;0.8660256;1;0.7498762;1.17533;-0.9848078;1.673648;-0.6668733;1.693988;
637949643383714351;518.127;21;2;1.5;1.1;2;1200;1.25;-0.6427882;2.266044;-0.4539132;2.179973;0.8660256;1;0.7498762;1.17533;
637949643393826626;519.1374;21;2;1.5;1.1;2;1010;1.48514851485149;0.3420205;0.5603075;0.2181012;0.9034795;-0.6427882;2.266044;-0.4539132;2.179973;
637949643421812944;521.9362;21;2;3.5;0.2;2;1499;2.33488992661775;-0.3420197;0.5603072;-0.3160814;0.5891002;0;2.5;0.02496106;2.467105;
637949643431805195;522.9355;21;2;3.5;0.2;2;999;3.5035035035035;0.6427875;2.266045;0.6420073;2.205308;-0.3420197;0.5603072;-0.3160814;0.5891002;
637949643444798120;524.235;21;2;3.5;0.2;2;1299;2.69438029253272;-0.8660251;0.9999995;-0.8614174;0.9879195;0.6427875;2.266045;0.6420073;2.205308;
637949643455790592;525.3346;21;2;3.5;0.2;2;1100;3.18181818181818;0.9848077;1.673648;0.9389893;1.68675;-0.8660251;0.9999995;-0.8614174;0.9879195;
637949643467783292;526.5338;21;2;3.5;0.2;2;1199;2.91909924937448;-0.9848078;1.673648;-0.9772684;1.669018;0.9848077;1.673648;0.9389893;1.68675;
637949643484777113;528.2333;21;2;3.5;0.2;2;1699;2.06003531489111;0.8660256;1;0.9050922;1.003943;-0.9848078;1.673648;-0.9772684;1.669018;
637949643495769593;529.3325;21;2;3.5;0.2;2;1099;3.18471337579618;-0.6427882;2.266044;-0.6051677;2.212643;0.8660256;1;0.9050922;1.003943;
637949643510772970;530.8321;21;2;3.5;0.2;2;1500;2.33333333333333;0.3420205;0.5603075;0.3249373;0.6027901;-0.6427882;2.266044;-0.6051677;2.212643;
637949643548751518;534.6304;21;2;4;0.1;1.4;1599;2.50156347717323;-0.2394138;0.8422151;-0.2150991;0.8512337;0;2.2;0.004690682;2.177709;
637949643560864243;535.8411;21;2;4;0.1;1.4;1211;3.30305532617671;0.4499513;2.036231;0.4343802;2.00164;-0.2394138;0.8422151;-0.2150991;0.8512337;
637949643572856945;537.0403;21;2;4;0.1;1.4;1199;3.33611342785655;-0.6062176;1.15;-0.5892359;1.153623;0.4499513;2.036231;0.4343802;2.00164;
637949643585849869;538.34;21;2;4;0.1;1.4;1300;3.07692307692308;0.6893654;1.621554;0.6794236;1.648625;-0.6062176;1.15;-0.5892359;1.153623;
637949643597842566;539.5392;21;2;4;0.1;1.4;1199;3.33611342785655;-0.6893655;1.621553;-0.6632172;1.629152;0.6893654;1.621554;0.6794236;1.648625;
637949643614836395;541.2384;21;2;4;0.1;1.4;1699;2.35432607416127;0.6062179;1.15;0.5863312;1.152737;-0.6893655;1.621553;-0.6632172;1.629152;
637949643627819312;542.5375;21;2;4;0.1;1.4;1299;3.07929176289453;-0.4499517;2.036231;-0.411302;2.004582;0.6062179;1.15;0.5863312;1.152737;
637949643640822232;543.8373;21;2;4;0.1;1.4;1300;3.07692307692308;0.2394144;0.8422153;0.2331217;0.8665396;-0.4499517;2.036231;-0.411302;2.004582;
637949643669808764;546.7358;21;2;4.5;0.1;2.2;1599;2.81425891181989;-0.3762217;0.4663379;-0.3503574;0.4883064;0;2.6;0.04544512;2.598135;
637949643683801914;548.1357;21;2;4.5;0.1;2.2;1400;3.21428571428571;0.7070663;2.342649;0.6938508;2.353309;-0.3762217;0.4663379;-0.3503574;0.4883064;
637949643698795287;549.6345;21;2;4.5;0.1;2.2;1499;3.00200133422282;-0.9526277;0.9499994;-0.9272769;0.9463685;0.7070663;2.342649;0.6938508;2.353309;
637949643712788439;551.0338;21;2;4.5;0.1;2.2;1399;3.21658327376698;1.083289;1.691013;1.072144;1.7139;-0.9526277;0.9499994;-0.9272769;0.9463685;
637949643725887975;552.3443;21;2;4.5;0.1;2.2;1310;3.43511450381679;-1.083289;1.691012;-1.054887;1.707815;1.083289;1.691013;1.072144;1.7139;
637949643745882472;554.3433;21;2;4.5;0.1;2.2;1999;2.25112556278139;0.9526281;0.9500003;0.9129855;0.9795377;-1.083289;1.691012;-1.054887;1.707815;
637949643761870831;555.9426;21;2;4.5;0.1;2.2;1599;2.81425891181989;-0.7070671;2.342648;-0.6797335;2.322801;0.9526281;0.9500003;0.9129855;0.9795377;
637949643781864122;557.9417;21;2;4.5;0.1;2.2;1999;2.25112556278139;0.3762226;0.4663382;0.3912277;0.4943304;-0.7070671;2.342648;-0.6797335;2.322801;
637949643804859297;560.2407;21;2;2;0.6;1.8;1199;1.66805671392827;-0.3078177;0.6542765;-0.2884719;0.7508482;0;2.4;0.05824944;2.268584;
637949643813851319;561.1403;21;2;2;0.6;1.8;900;2.22222222222222;0.5785087;2.18944;0.573031;2.204407;-0.3078177;0.6542765;-0.2884719;0.7508482;
637949643825844018;562.3397;21;2;2;0.6;1.8;1199;1.66805671392827;-0.7794226;1.05;-0.67568;1.135839;0.5785087;2.18944;0.573031;2.204407;
637949643834836041;563.2393;21;2;2;0.6;1.8;900;2.22222222222222;0.8863269;1.656283;0.7923735;1.689631;-0.7794226;1.05;-0.67568;1.135839;
637949643844948316;564.2498;21;2;2;0.6;1.8;1011;1.9782393669634;-0.8863271;1.656283;-0.7902312;1.665365;0.8863269;1.656283;0.7923735;1.689631;
637949643859941694;565.7493;21;2;2;0.6;1.8;1500;1.33333333333333;0.779423;1.05;0.631982;1.173298;-0.8863271;1.656283;-0.7902312;1.665365;
637949643870934165;566.8488;21;2;2;0.6;1.8;1099;1.81983621474067;-0.5785094;2.18944;-0.5278694;2.149525;0.779423;1.05;0.631982;1.173298;
637949643882926870;568.0483;21;2;2;0.6;1.8;1200;1.66666666666667;0.3078185;0.6542768;0.251055;0.7442613;-0.5785094;2.18944;-0.5278694;2.149525;
637949644519100746;631.6631;21;3;4.5;0.1;2.2;1599;2.81425891181989;-0.3762217;0.4663379;-0.3666882;0.487627;0;2.6;-0.02695847;2.572344;
637949644535082455;633.2624;21;3;4.5;0.1;2.2;1599;2.81425891181989;0.7070663;2.342649;0.6671628;2.313131;-0.3762217;0.4663379;-0.3666882;0.487627;
637949644552192518;634.9727;21;3;4.5;0.1;2.2;1710;2.63157894736842;-0.9526277;0.9499994;-0.9114826;0.9775088;0.7070663;2.342649;0.6671628;2.313131;
637949644573178770;637.0719;21;3;4.5;0.1;2.2;2099;2.14387803716055;1.083289;1.691013;1.077338;1.697292;-0.9526277;0.9499994;-0.9114826;0.9775088;
637949644593173270;639.071;21;3;4.5;0.1;2.2;1999;2.25112556278139;-1.083289;1.691012;-1.054009;1.689304;1.083289;1.691013;1.077338;1.697292;
637949644608156643;640.5699;21;3;4.5;0.1;2.2;1499;3.00200133422282;0.9526281;0.9500003;0.9276882;0.9724819;-1.083289;1.691012;-1.054009;1.689304;
637949644622159794;641.9694;21;3;4.5;0.1;2.2;1399;3.21658327376698;-0.7070671;2.342648;-0.6972349;2.315337;0.9526281;0.9500003;0.9276882;0.9724819;
637949644637153169;643.4689;21;3;4.5;0.1;2.2;1499;3.00200133422282;0.3762226;0.4663382;0.3662932;0.4742223;-0.7070671;2.342648;-0.6972349;2.315337;
637949644663139017;646.0679;21;3;3;0.2;1.4;1299;2.3094688221709;-0.2394138;0.8422151;-0.2116044;0.838273;0;2.2;0.03476232;2.17721;
637949644679132617;647.6669;21;3;3;0.2;1.4;1599;1.87617260787993;0.4499513;2.036231;0.4195489;2.005976;-0.2394138;0.8422151;-0.2116044;0.838273;
637949644692235568;648.9775;21;3;3;0.2;1.4;1311;2.2883295194508;-0.6062176;1.15;-0.6003664;1.163041;0.4499513;2.036231;0.4195489;2.005976;
637949644708229158;650.5766;21;3;3;0.2;1.4;1599;1.87617260787993;0.6893654;1.621554;0.6451449;1.623953;-0.6062176;1.15;-0.6003664;1.163041;
637949644720221867;651.7759;21;3;3;0.2;1.4;1199;2.50208507089241;-0.6893655;1.621553;-0.7048959;1.602396;0.6893654;1.621554;0.6451449;1.623953;
637949644731214339;652.8755;21;3;3;0.2;1.4;1100;2.72727272727273;0.6062179;1.15;0.6013433;1.204134;-0.6893655;1.621553;-0.7048959;1.602396;
637949644743217043;654.075;21;3;3;0.2;1.4;1200;2.5;-0.4499517;2.036231;-0.406833;1.992096;0.6062179;1.15;0.6013433;1.204134;
637949644758210417;655.5743;21;3;3;0.2;1.4;1499;2.00133422281521;0.2394144;0.8422153;0.2081668;0.8829687;-0.4499517;2.036231;-0.406833;1.992096;
637949644789187390;658.6729;21;3;3.5;0.2;2;1699;2.06003531489111;-0.3420197;0.5603072;-0.334644;0.5925156;0;2.5;0.04592718;2.460011;
637949644802180314;659.9721;21;3;3.5;0.2;2;1299;2.69438029253272;0.6427875;2.266045;0.5679165;2.237997;-0.3420197;0.5603072;-0.334644;0.5925156;
637949644814183014;661.1719;21;3;3.5;0.2;2;1200;2.91666666666667;-0.8660251;0.9999995;-0.8121367;1.023438;0.6427875;2.266045;0.5679165;2.237997;
637949644826175712;662.3715;21;3;3.5;0.2;2;1200;2.91666666666667;0.9848077;1.673648;0.9170427;1.638564;-0.8660251;0.9999995;-0.8121367;1.023438;
637949644838173539;663.5708;21;3;3.5;0.2;2;1199;2.91909924937448;-0.9848078;1.673648;-0.9087666;1.685133;0.9848077;1.673648;0.9170427;1.638564;
637949644849273024;664.6813;21;3;3.5;0.2;2;1110;3.15315315315315;0.8660256;1;0.8669438;1.037557;-0.9848078;1.673648;-0.9087666;1.685133;
637949644862265949;665.9807;21;3;3.5;0.2;2;1299;2.69438029253272;-0.6427882;2.266044;-0.620255;2.30757;0.8660256;1;0.8669438;1.037557;
637949644877259325;667.4801;21;3;3.5;0.2;2;1499;2.33488992661775;0.3420205;0.5603075;0.3473624;0.616309;-0.6427882;2.266044;-0.620255;2.30757;
637949644906244497;670.3784;21;3;4;0.1;1.4;1499;2.66844563042028;-0.2394138;0.8422151;-0.2080454;0.8704836;0;2.2;0.01699756;2.217172;
637949644918241176;671.5781;21;3;4;0.1;1.4;1200;3.33333333333333;0.4499513;2.036231;0.4332476;2.012265;-0.2394138;0.8422151;-0.2080454;0.8704836;
637949644932232223;672.9773;21;3;4;0.1;1.4;1399;2.85918513223731;-0.6062176;1.15;-0.5964929;1.132373;0.4499513;2.036231;0.4332476;2.012265;
637949644947227957;674.4766;21;3;4;0.1;1.4;1499;2.66844563042028;0.6893654;1.621554;0.6841845;1.612731;-0.6062176;1.15;-0.5964929;1.132373;
637949644962333190;675.9871;21;3;4;0.1;1.4;1511;2.64725347452019;-0.6893655;1.621553;-0.644271;1.606281;0.6893654;1.621554;0.6841845;1.612731;
637949644979327016;677.6863;21;3;4;0.1;1.4;1699;2.35432607416127;0.6062179;1.15;0.610643;1.157675;-0.6893655;1.621553;-0.644271;1.606281;
637949644998321291;679.5854;21;3;4;0.1;1.4;1899;2.10637177461822;-0.4499517;2.036231;-0.4094848;2.029048;0.6062179;1.15;0.610643;1.157675;
637949645017305564;681.4843;21;3;4;0.1;1.4;1899;2.10637177461822;0.2394144;0.8422153;0.2397614;0.8721249;-0.4499517;2.036231;-0.4094848;2.029048;
637949645041300964;683.8834;21;3;2.5;0.3;1.4;1299;1.92455735180908;-0.2394138;0.8422151;-0.2043659;0.8753777;0;2.2;0.0112971;2.152868;
637949645051293213;684.8829;21;3;2.5;0.3;1.4;1000;2.5;0.4499513;2.036231;0.4194722;2.04149;-0.2394138;0.8422151;-0.2043659;0.8753777;
637949645064286138;686.1824;21;3;2.5;0.3;1.4;1299;1.92455735180908;-0.6062176;1.15;-0.5980286;1.16762;0.4499513;2.036231;0.4194722;2.04149;
637949645076278838;687.3817;21;3;2.5;0.3;1.4;1199;2.08507089241034;0.6893654;1.621554;0.6564803;1.620412;-0.6062176;1.15;-0.5980286;1.16762;
637949645088271535;688.581;21;3;2.5;0.3;1.4;1199;2.08507089241034;-0.6893655;1.621553;-0.6252968;1.601825;0.6893654;1.621554;0.6564803;1.620412;
637949645101264460;689.8806;21;3;2.5;0.3;1.4;1299;1.92455735180908;0.6062179;1.15;0.5459396;1.189845;-0.6893655;1.621553;-0.6252968;1.601825;
637949645118258288;691.5798;21;3;2.5;0.3;1.4;1699;1.47145379635079;-0.4499517;2.036231;-0.3884189;1.971967;0.6062179;1.15;0.5459396;1.189845;
637949645133361686;693.0902;21;3;2.5;0.3;1.4;1510;1.65562913907285;0.2394144;0.8422153;0.2084427;0.9468427;-0.4499517;2.036231;-0.3884189;1.971967;
637949645154366412;695.1904;21;3;1.5;1.1;2;1000;1.5;-0.3420197;0.5603072;-0.2887469;0.9729449;0;2.5;0.03133323;2.329926;
637949645165348886;696.2885;21;3;1.5;1.1;2;1098;1.36612021857923;0.6427875;2.266045;0.4715227;2.040388;-0.3420197;0.5603072;-0.2887469;0.9729449;
637949645177341584;697.488;21;3;1.5;1.1;2;1200;1.25;-0.8660251;0.9999995;-0.5873711;1.361398;0.6427875;2.266045;0.4715227;2.040388;
637949645186453637;698.3989;21;3;1.5;1.1;2;911;1.64654226125137;0.9848077;1.673648;0.7066003;1.677585;-0.8660251;0.9999995;-0.5873711;1.361398;
637949645196445883;699.3981;21;3;1.5;1.1;2;999;1.5015015015015;-0.9848078;1.673648;-0.6180444;1.730626;0.9848077;1.673648;0.7066003;1.677585;
637949645205437909;700.2977;21;3;1.5;1.1;2;900;1.66666666666667;0.8660256;1;0.621708;1.158012;-0.9848078;1.673648;-0.6180444;1.730626;
637949645216440385;701.3973;21;3;1.5;1.1;2;1100;1.36363636363636;-0.6427882;2.266044;-0.4043563;1.960506;0.8660256;1;0.621708;1.158012;
637949645225552436;702.3083;21;3;1.5;1.1;2;911;1.64654226125137;0.3420205;0.5603075;0.373337;1.012131;-0.6427882;2.266044;-0.4043563;1.960506;
637949645254425471;705.196;21;3;2;0.6;1.8;1400;1.42857142857143;-0.3078177;0.6542765;-0.2416475;0.8626121;0;2.4;0.002077962;2.308441;
637949645265416667;706.2954;21;3;2;0.6;1.8;1099;1.81983621474067;0.5785087;2.18944;0.4774715;2.060411;-0.3078177;0.6542765;-0.2416475;0.8626121;
637949645275407417;707.2949;21;3;2;0.6;1.8;999;2.002002002002;-0.7794226;1.05;-0.6816616;1.248494;0.5785087;2.18944;0.4774715;2.060411;
637949645290504186;708.8049;21;3;2;0.6;1.8;1510;1.32450331125828;0.8863269;1.656283;0.654295;1.658106;-0.7794226;1.05;-0.6816616;1.248494;
637949645303494047;710.1042;21;3;2;0.6;1.8;1299;1.53964588144727;-0.8863271;1.656283;-0.7270279;1.681712;0.8863269;1.656283;0.654295;1.658106;
637949645317482872;711.5038;21;3;2;0.6;1.8;1400;1.42857142857143;0.779423;1.05;0.6299387;1.15424;-0.8863271;1.656283;-0.7270279;1.681712;
637949645328593768;712.6145;21;3;2;0.6;1.8;1111;1.8001800180018;-0.5785094;2.18944;-0.4353093;2.055513;0.779423;1.05;0.6299387;1.15424;
637949645342583393;714.014;21;3;2;0.6;1.8;1399;1.42959256611866;0.3078185;0.6542768;0.2588539;0.830898;-0.5785094;2.18944;-0.4353093;2.055513;
637949646551147899;834.8686;21;4;3;0.2;1.4;1299;2.3094688221709;-0.2394138;0.8422151;-0.1880369;0.8451154;0;2.2;0.03844802;2.146684;
637949646564140823;836.1681;21;4;3;0.2;1.4;1299;2.3094688221709;0.4499513;2.036231;0.4241482;2.028295;-0.2394138;0.8422151;-0.1880369;0.8451154;
637949646577133747;837.4675;21;4;3;0.2;1.4;1299;2.3094688221709;-0.6062176;1.15;-0.5415123;1.187196;0.4499513;2.036231;0.4241482;2.028295;
637949646590136674;838.767;21;4;3;0.2;1.4;1299;2.3094688221709;0.6893654;1.621554;0.6583385;1.636672;-0.6062176;1.15;-0.5415123;1.187196;
637949646602129375;839.9662;21;4;3;0.2;1.4;1199;2.50208507089241;-0.6893655;1.621553;-0.6962008;1.569813;0.6893654;1.621554;0.6583385;1.636672;
637949646616122522;841.3658;21;4;3;0.2;1.4;1400;2.14285714285714;0.6062179;1.15;0.5744837;1.179692;-0.6893655;1.621553;-0.6962008;1.569813;
637949646627114997;842.4651;21;4;3;0.2;1.4;1099;2.72975432211101;-0.4499517;2.036231;-0.4014708;2.034124;0.6062179;1.15;0.5744837;1.179692;
637949646640107921;843.7645;21;4;3;0.2;1.4;1299;2.3094688221709;0.2394144;0.8422153;0.242033;0.884235;-0.4499517;2.036231;-0.4014708;2.034124;
637949646662102875;845.9636;21;4;1.5;1.1;2;1100;1.36363636363636;-0.3420197;0.5603072;-0.1844685;0.9529814;0;2.5;0.07968052;2.19055;
637949646678086475;847.5628;21;4;1.5;1.1;2;1599;0.938086303939963;0.6427875;2.266045;0.4380629;1.983039;-0.3420197;0.5603072;-0.1844685;0.9529814;
637949646692089624;848.9623;21;4;1.5;1.1;2;1399;1.07219442458899;-0.8660251;0.9999995;-0.6164008;1.169469;0.6427875;2.266045;0.4380629;1.983039;
637949646705192571;850.2729;21;4;1.5;1.1;2;1311;1.1441647597254;0.9848077;1.673648;0.5671872;1.668799;-0.8660251;0.9999995;-0.6164008;1.169469;
637949646717185270;851.4722;21;4;1.5;1.1;2;1199;1.25104253544621;-0.9848078;1.673648;-0.6305153;1.694313;0.9848077;1.673648;0.5671872;1.668799;
637949646729177967;852.6717;21;4;1.5;1.1;2;1199;1.25104253544621;0.8660256;1;0.5563087;1.22132;-0.9848078;1.673648;-0.6305153;1.694313;
637949646739180219;853.6713;21;4;1.5;1.1;2;1000;1.5;-0.6427882;2.266044;-0.3369817;2.079973;0.8660256;1;0.5563087;1.22132;
637949646752163143;854.9703;21;4;1.5;1.1;2;1299;1.15473441108545;0.3420205;0.5603075;0.2515059;0.9071618;-0.6427882;2.266044;-0.3369817;2.079973;
637949646781149668;857.8691;21;4;3.5;0.2;2;1500;2.33333333333333;-0.3420197;0.5603072;-0.3000729;0.5954714;0;2.5;0.03267189;2.443897;
637949646794152593;859.1685;21;4;3.5;0.2;2;1299;2.69438029253272;0.6427875;2.266045;0.5707554;2.246998;-0.3420197;0.5603072;-0.3000729;0.5954714;
637949646811256444;860.879;21;4;3.5;0.2;2;1710;2.04678362573099;-0.8660251;0.9999995;-0.8238316;1.006618;0.6427875;2.266045;0.5707554;2.246998;
637949646835242154;863.2777;21;4;3.5;0.2;2;2399;1.45894122551063;0.9848077;1.673648;0.9024984;1.672743;-0.8660251;0.9999995;-0.8238316;1.006618;
637949646850235529;864.7772;21;4;3.5;0.2;2;1499;2.33488992661775;-0.9848078;1.673648;-0.8892872;1.684663;0.9848077;1.673648;0.9024984;1.672743;
637949646865228903;866.2764;21;4;3.5;0.2;2;1499;2.33488992661775;0.8660256;1;0.8051017;1.038023;-0.9848078;1.673648;-0.8892872;1.684663;
637949646878216877;867.5757;21;4;3.5;0.2;2;1299;2.69438029253272;-0.6427882;2.266044;-0.6078959;2.243087;0.8660256;1;0.8051017;1.038023;
637949646894202382;869.175;21;4;3.5;0.2;2;1599;2.18886804252658;0.3420205;0.5603075;0.3731521;0.5911318;-0.6427882;2.266044;-0.6078959;2.243087;
637949646921298473;871.8848;21;4;2;0.6;1.8;1299;1.53964588144727;-0.3078177;0.6542765;-0.2581267;0.8554946;0;2.4;0.09124331;2.306984;
637949646935291635;873.2839;21;4;2;0.6;1.8;1399;1.42959256611866;0.5785087;2.18944;0.4442705;2.111129;-0.3078177;0.6542765;-0.2581267;0.8554946;
637949646948284555;874.5834;21;4;2;0.6;1.8;1299;1.53964588144727;-0.7794226;1.05;-0.6444582;1.178933;0.5785087;2.18944;0.4442705;2.111129;
637949646963277929;876.0828;21;4;2;0.6;1.8;1499;1.33422281521014;0.8863269;1.656283;0.7352721;1.624504;-0.7794226;1.05;-0.6444582;1.178933;
637949646980271757;877.7822;21;4;2;0.6;1.8;1699;1.17716303708064;-0.8863271;1.656283;-0.6881923;1.626123;0.8863269;1.656283;0.7352721;1.624504;
637949646992264455;878.9815;21;4;2;0.6;1.8;1199;1.66805671392827;0.779423;1.05;0.7765891;1.149613;-0.8863271;1.656283;-0.6881923;1.626123;
637949647009248278;880.6804;21;4;2;0.6;1.8;1699;1.17716303708064;-0.5785094;2.18944;-0.4628986;2.085111;0.779423;1.05;0.7765891;1.149613;
637949647025251882;882.28;21;4;2;0.6;1.8;1600;1.25;0.3078185;0.6542768;0.3350782;0.8284756;-0.5785094;2.18944;-0.4628986;2.085111;
637949647054238404;885.1787;21;4;2.5;0.3;1.4;1399;1.78699070764832;-0.2394138;0.8422151;-0.1552061;0.9306301;0;2.2;0.01813769;2.157232;
637949647066341130;886.3891;21;4;2.5;0.3;1.4;1210;2.06611570247934;0.4499513;2.036231;0.3990186;2.060179;-0.2394138;0.8422151;-0.1552061;0.9306301;
637949647078343830;887.5893;21;4;2.5;0.3;1.4;1200;2.08333333333333;-0.6062176;1.15;-0.5643387;1.224079;0.4499513;2.036231;0.3990186;2.060179;
637949647088326076;888.588;21;4;2.5;0.3;1.4;999;2.5025025025025;0.6893654;1.621554;0.6613731;1.589408;-0.6062176;1.15;-0.5643387;1.224079;
637949647101318998;889.8872;21;4;2.5;0.3;1.4;1299;1.92455735180908;-0.6893655;1.621553;-0.6513621;1.599645;0.6893654;1.621554;0.6613731;1.589408;
637949647119313050;891.6867;21;4;2.5;0.3;1.4;1799;1.38966092273485;0.6062179;1.15;0.5482229;1.199291;-0.6893655;1.621553;-0.6513621;1.599645;
637949647134308822;893.1859;21;4;2.5;0.3;1.4;1499;1.66777851901268;-0.4499517;2.036231;-0.3775531;1.976862;0.6062179;1.15;0.5482229;1.199291;
637949647149302201;894.6854;21;4;2.5;0.3;1.4;1500;1.66666666666667;0.2394144;0.8422153;0.2488272;0.8986259;-0.4499517;2.036231;-0.3775531;1.976862;
637949647173288691;897.0842;21;4;4;0.1;1.4;1100;3.63636363636364;-0.2394138;0.8422151;-0.224058;0.8876499;0;2.2;0.02427911;2.199946;
637949647189282291;898.6835;21;4;4;0.1;1.4;1599;2.50156347717323;0.4499513;2.036231;0.4319998;2.012658;-0.2394138;0.8422151;-0.224058;0.8876499;
637949647207275406;900.4827;21;4;4;0.1;1.4;1799;2.22345747637576;-0.6062176;1.15;-0.618274;1.155085;0.4499513;2.036231;0.4319998;2.012658;
637949647221382300;901.893;21;4;4;0.1;1.4;1410;2.83687943262411;0.6893654;1.621554;0.7286146;1.637734;-0.6062176;1.15;-0.618274;1.155085;
637949647249371984;904.6923;21;4;4;0.1;1.4;2799;1.4290818149339;-0.6893655;1.621553;-0.656669;1.622581;0.6893654;1.621554;0.7286146;1.637734;
637949647268356774;906.5911;21;4;4;0.1;1.4;1899;2.10637177461822;0.6062179;1.15;0.589749;1.159473;-0.6893655;1.621553;-0.656669;1.622581;
637949647291341947;908.8895;21;4;4;0.1;1.4;2299;1.73988690735102;-0.4499517;2.036231;-0.4562863;2.013959;0.6062179;1.15;0.589749;1.159473;
637949647306345327;910.3892;21;4;4;0.1;1.4;1500;2.66666666666667;0.2394144;0.8422153;0.2419984;0.8746058;-0.4499517;2.036231;-0.4562863;2.013959;
637949647337442322;913.4989;21;4;4.5;0.1;2.2;1610;2.79503105590062;-0.3762217;0.4663379;-0.3731416;0.4833933;0;2.6;0.0100873;2.568881;
637949647353425923;915.098;21;4;4.5;0.1;2.2;1599;2.81425891181989;0.7070663;2.342649;0.6985522;2.325662;-0.3762217;0.4663379;-0.3731416;0.4833933;
637949647373420417;917.097;21;4;4.5;0.1;2.2;1999;2.25112556278139;-0.9526277;0.9499994;-0.9283498;0.9190096;0.7070663;2.342649;0.6985522;2.325662;
637949647390404245;918.7962;21;4;4.5;0.1;2.2;1699;2.64861683343143;1.083289;1.691013;1.09136;1.68748;-0.9526277;0.9499994;-0.9283498;0.9190096;
637949647406407846;920.3958;21;4;4.5;0.1;2.2;1599;2.81425891181989;-1.083289;1.691012;-1.048224;1.673174;1.083289;1.691013;1.09136;1.68748;
637949647426392345;922.3945;21;4;4.5;0.1;2.2;1999;2.25112556278139;0.9526281;0.9500003;0.940454;0.9824169;-1.083289;1.691012;-1.048224;1.673174;
637949647440385496;923.7939;21;4;4.5;0.1;2.2;1399;3.21658327376698;-0.7070671;2.342648;-0.7165194;2.348063;0.9526281;0.9500003;0.940454;0.9824169;
637949647459379770;925.693;21;4;4.5;0.1;2.2;1899;2.3696682464455;0.3762226;0.4663382;0.4158809;0.4917321;-0.7070671;2.342648;-0.7165194;2.348063;
637949648050686317;984.8217;21;5;1.5;1.1;2;1200;1.25;-0.3420197;0.5603072;-0.1508734;0.8639699;0;2.5;0.04827585;2.176402;
637949648059668335;985.7208;21;5;1.5;1.1;2;899;1.66852057842047;0.6427875;2.266045;0.3299377;1.984059;-0.3420197;0.5603072;-0.1508734;0.8639699;
637949648070660810;986.8202;21;5;1.5;1.1;2;1099;1.36487716105551;-0.8660251;0.9999995;-0.6361403;1.353217;0.6427875;2.266045;0.3299377;1.984059;
637949648079662835;987.7198;21;5;1.5;1.1;2;900;1.66666666666667;0.9848077;1.673648;0.6693223;1.588584;-0.8660251;0.9999995;-0.6361403;1.353217;
637949648091655536;988.9191;21;5;1.5;1.1;2;1199;1.25104253544621;-0.9848078;1.673648;-0.6479852;1.681811;0.9848077;1.673648;0.6693223;1.588584;
637949648101647782;989.9188;21;5;1.5;1.1;2;1000;1.5;0.8660256;1;0.5562847;1.18067;-0.9848078;1.673648;-0.6479852;1.681811;
637949648111650037;990.9183;21;5;1.5;1.1;2;1000;1.5;-0.6427882;2.266044;-0.3354654;2.044817;0.8660256;1;0.5562847;1.18067;
637949648122642509;992.0178;21;5;1.5;1.1;2;1099;1.36487716105551;0.3420205;0.5603075;0.2345277;1.009215;-0.6427882;2.266044;-0.3354654;2.044817;
637949648144627464;994.2167;21;5;2;0.6;1.8;1199;1.66805671392827;-0.3078177;0.6542765;-0.1857335;0.8613756;0;2.4;-0.001327563;2.203911;
637949648163621737;996.116;21;5;2;0.6;1.8;1899;1.05318588730911;0.5785087;2.18944;0.4237656;2.071047;-0.3078177;0.6542765;-0.1857335;0.8613756;
637949648179615334;997.7153;21;5;2;0.6;1.8;1599;1.25078173858662;-0.7794226;1.05;-0.5478086;1.127867;0.5785087;2.18944;0.4237656;2.071047;
637949648191608032;998.9149;21;5;2;0.6;1.8;1200;1.66666666666667;0.8863269;1.656283;0.5985937;1.580198;-0.7794226;1.05;-0.5478086;1.127867;
637949648202710533;1000.025;21;5;2;0.6;1.8;1110;1.8018018018018;-0.8863271;1.656283;-0.6285746;1.655739;0.8863269;1.656283;0.5985937;1.580198;
637949648214713233;1001.225;21;5;2;0.6;1.8;1200;1.66666666666667;0.779423;1.05;0.6430983;1.12745;-0.8863271;1.656283;-0.6285746;1.655739;
637949648226695928;1002.424;21;5;2;0.6;1.8;1199;1.66805671392827;-0.5785094;2.18944;-0.4102651;2.046645;0.779423;1.05;0.6430983;1.12745;
637949648238688629;1003.624;21;5;2;0.6;1.8;1199;1.66805671392827;0.3078185;0.6542768;0.2909403;0.8579881;-0.5785094;2.18944;-0.4102651;2.046645;
637949648277669126;1007.522;21;5;4.5;0.1;2.2;2599;1.73143516737207;-0.3762217;0.4663379;-0.3513347;0.5040468;0;2.6;-0.006320104;2.615745;
637949648298987171;1009.661;21;5;4.5;0.1;2.2;2139;2.10378681626928;0.7070663;2.342649;0.6944057;2.389857;-0.3762217;0.4663379;-0.3513347;0.5040468;
637949648313759994;1011.131;21;5;4.5;0.1;2.2;1470;3.06122448979592;-0.9526277;0.9499994;-0.9412919;0.9563422;0.7070663;2.342649;0.6944057;2.389857;
637949648326750077;1012.431;21;5;4.5;0.1;2.2;1299;3.46420323325635;1.083289;1.691013;1.076117;1.693369;-0.9526277;0.9499994;-0.9412919;0.9563422;
637949648340750886;1013.83;21;5;4.5;0.1;2.2;1399;3.21658327376698;-1.083289;1.691012;-1.043911;1.674017;1.083289;1.691013;1.076117;1.693369;
637949648359735157;1015.729;21;5;4.5;0.1;2.2;1899;2.3696682464455;0.9526281;0.9500003;0.9412889;0.9709189;-1.083289;1.691012;-1.043911;1.674017;
637949648373728308;1017.128;21;5;4.5;0.1;2.2;1400;3.21428571428571;-0.7070671;2.342648;-0.690001;2.324433;0.9526281;0.9500003;0.9412889;0.9709189;
637949648388731683;1018.628;21;5;4.5;0.1;2.2;1500;3;0.3762226;0.4663382;0.3853724;0.4837947;-0.7070671;2.342648;-0.690001;2.324433;
637949648413827333;1021.138;21;5;3;0.2;1.4;1311;2.2883295194508;-0.2394138;0.8422151;-0.2339829;0.848069;0;2.2;-0.002412006;2.173799;
637949648426820252;1022.437;21;5;3;0.2;1.4;1299;2.3094688221709;0.4499513;2.036231;0.4450918;2.047926;-0.2394138;0.8422151;-0.2339829;0.848069;
637949648437812730;1023.536;21;5;3;0.2;1.4;1099;2.72975432211101;-0.6062176;1.15;-0.5904477;1.196329;0.4499513;2.036231;0.4450918;2.047926;
637949648451805880;1024.936;21;5;3;0.2;1.4;1399;2.14438884917798;0.6893654;1.621554;0.7052943;1.624105;-0.6062176;1.15;-0.5904477;1.196329;
637949648464798803;1026.235;21;5;3;0.2;1.4;1299;2.3094688221709;-0.6893655;1.621553;-0.6638325;1.642409;0.6893654;1.621554;0.7052943;1.624105;
637949648479792180;1027.734;21;5;3;0.2;1.4;1499;2.00133422281521;0.6062179;1.15;0.635579;1.182632;-0.6893655;1.621553;-0.6638325;1.642409;
637949648491784879;1028.934;21;5;3;0.2;1.4;1199;2.50208507089241;-0.4499517;2.036231;-0.4396484;2.033205;0.6062179;1.15;0.635579;1.182632;
637949648505788023;1030.333;21;5;3;0.2;1.4;1400;2.14285714285714;0.2394144;0.8422153;0.2440691;0.8846515;-0.4499517;2.036231;-0.4396484;2.033205;
637949648532774107;1033.032;21;5;3.5;0.2;2;1399;2.50178699070765;-0.3420197;0.5603072;-0.3618349;0.5856073;0;2.5;0.05603728;2.452207;
637949648548767705;1034.631;21;5;3.5;0.2;2;1599;2.18886804252658;0.6427875;2.266045;0.6324199;2.257566;-0.3420197;0.5603072;-0.3618349;0.5856073;
637949648562750853;1036.031;21;5;3.5;0.2;2;1399;2.50178699070765;-0.8660251;0.9999995;-0.8117563;1.009223;0.6427875;2.266045;0.6324199;2.257566;
637949648577854249;1037.541;21;5;3.5;0.2;2;1510;2.31788079470199;0.9848077;1.673648;0.9572304;1.659813;-0.8660251;0.9999995;-0.8117563;1.009223;
637949648592857628;1039.041;21;5;3.5;0.2;2;1500;2.33333333333333;-0.9848078;1.673648;-0.9242123;1.674838;0.9848077;1.673648;0.9572304;1.659813;
637949648607851002;1040.54;21;5;3.5;0.2;2;1500;2.33333333333333;0.8660256;1;0.8505872;1.06565;-0.9848078;1.673648;-0.9242123;1.674838;
637949648620843928;1041.839;21;5;3.5;0.2;2;1299;2.69438029253272;-0.6427882;2.266044;-0.5995873;2.242397;0.8660256;1;0.8505872;1.06565;
637949648640827017;1043.838;21;5;3.5;0.2;2;1999;1.75087543771886;0.3420205;0.5603075;0.3528789;0.6457465;-0.6427882;2.266044;-0.5995873;2.242397;
637949648671819483;1046.937;21;5;4;0.1;1.4;1199;3.33611342785655;-0.2394138;0.8422151;-0.2043506;0.8507782;0;2.2;0.01420821;2.176908;
637949648685812632;1048.336;21;5;4;0.1;1.4;1399;2.85918513223731;0.4499513;2.036231;0.446852;2.008678;-0.2394138;0.8422151;-0.2043506;0.8507782;
637949648698915581;1049.647;21;5;4;0.1;1.4;1311;3.0511060259344;-0.6062176;1.15;-0.5961061;1.154799;0.4499513;2.036231;0.446852;2.008678;
637949648712915460;1051.047;21;5;4;0.1;1.4;1401;2.85510349750178;0.6893654;1.621554;0.6913518;1.63059;-0.6062176;1.15;-0.5961061;1.154799;
637949648725905313;1052.345;21;5;4;0.1;1.4;1298;3.08166409861325;-0.6893655;1.621553;-0.6866596;1.630067;0.6893654;1.621554;0.6913518;1.63059;
637949648738897774;1053.645;21;5;4;0.1;1.4;1299;3.07929176289453;0.6062179;1.15;0.5883199;1.15093;-0.6893655;1.621553;-0.6866596;1.630067;
637949648751890697;1054.944;21;5;4;0.1;1.4;1299;3.07929176289453;-0.4499517;2.036231;-0.432934;2.035695;0.6062179;1.15;0.5883199;1.15093;
637949648770884973;1056.844;21;5;4;0.1;1.4;1899;2.10637177461822;0.2394144;0.8422153;0.2277581;0.8661864;-0.4499517;2.036231;-0.432934;2.035695;
637949648799861501;1059.742;21;5;2.5;0.3;1.4;1400;1.78571428571429;-0.2394138;0.8422151;-0.2093421;0.8606874;0;2.2;0.01429825;2.199856;
637949648810863965;1060.841;21;5;2.5;0.3;1.4;1099;2.27479526842584;0.4499513;2.036231;0.3967655;1.986885;-0.2394138;0.8422151;-0.2093421;0.8606874;
637949648822866671;1062.041;21;5;2.5;0.3;1.4;1199;2.08507089241034;-0.6062176;1.15;-0.5415952;1.252462;0.4499513;2.036231;0.3967655;1.986885;
637949648833849142;1063.14;21;5;2.5;0.3;1.4;1099;2.27479526842584;0.6893654;1.621554;0.6824725;1.608884;-0.6062176;1.15;-0.5415952;1.252462;
637949648845851847;1064.34;21;5;2.5;0.3;1.4;1200;2.08333333333333;-0.6893655;1.621553;-0.6082402;1.623999;0.6893654;1.621554;0.6824725;1.608884;
637949648857954571;1065.55;21;5;2.5;0.3;1.4;1210;2.06611570247934;0.6062179;1.15;0.5936867;1.213745;-0.6893655;1.621553;-0.6082402;1.623999;
637949648868947045;1066.65;21;5;2.5;0.3;1.4;1100;2.27272727272727;-0.4499517;2.036231;-0.376536;1.976541;0.6062179;1.15;0.5936867;1.213745;
637949648880939745;1067.849;21;5;2.5;0.3;1.4;1200;2.08333333333333;0.2394144;0.8422153;0.2852339;0.9651427;-0.4499517;2.036231;-0.376536;1.976541;
637949649404050557;1120.159;21;6;3.5;0.2;2;1499;2.33488992661775;-0.3420197;0.5603072;-0.3315247;0.601519;0;2.5;0.0001151031;2.456305;
637949649423034824;1122.058;21;6;3.5;0.2;2;1899;1.84307530279094;0.6427875;2.266045;0.600992;2.254277;-0.3420197;0.5603072;-0.3315247;0.601519;
637949649437128002;1123.468;21;6;3.5;0.2;2;1410;2.4822695035461;-0.8660251;0.9999995;-0.8066325;1.036635;0.6427875;2.266045;0.600992;2.254277;
637949649451121142;1124.867;21;6;3.5;0.2;2;1399;2.50178699070765;0.9848077;1.673648;0.9307985;1.672853;-0.8660251;0.9999995;-0.8066325;1.036635;
637949649464114074;1126.167;21;6;3.5;0.2;2;1299;2.69438029253272;-0.9848078;1.673648;-0.93669;1.690633;0.9848077;1.673648;0.9307985;1.672853;
637949649478107221;1127.566;21;6;3.5;0.2;2;1399;2.50178699070765;0.8660256;1;0.8338452;1.029685;-0.9848078;1.673648;-0.93669;1.690633;
637949649493120606;1129.066;21;6;3.5;0.2;2;1500;2.33333333333333;-0.6427882;2.266044;-0.5939822;2.26384;0.8660256;1;0.8338452;1.029685;
637949649508093972;1130.565;21;6;3.5;0.2;2;1498;2.33644859813084;0.3420205;0.5603075;0.3801646;0.5914704;-0.6427882;2.266044;-0.5939822;2.26384;
637949649536078966;1133.363;21;6;2.5;0.3;1.4;1399;1.78699070764832;-0.2394138;0.8422151;-0.2067042;0.8816042;0;2.2;0.01550668;2.144904;
637949649550073174;1134.763;21;6;2.5;0.3;1.4;1400;1.78571428571429;0.4499513;2.036231;0.4223755;2.03267;-0.2394138;0.8422151;-0.2067042;0.8816042;
637949649567173857;1136.473;21;6;2.5;0.3;1.4;1710;1.46198830409357;-0.6062176;1.15;-0.5366319;1.169616;0.4499513;2.036231;0.4223755;2.03267;
637949649583167464;1138.072;21;6;2.5;0.3;1.4;1599;1.56347717323327;0.6893654;1.621554;0.6594423;1.644621;-0.6062176;1.15;-0.5366319;1.169616;
637949649596170386;1139.372;21;6;2.5;0.3;1.4;1300;1.92307692307692;-0.6893655;1.621553;-0.642477;1.61469;0.6893654;1.621554;0.6594423;1.644621;
637949649611153760;1140.871;21;6;2.5;0.3;1.4;1499;1.66777851901268;0.6062179;1.15;0.5561213;1.155639;-0.6893655;1.621553;-0.642477;1.61469;
637949649629147809;1142.67;21;6;2.5;0.3;1.4;1799;1.38966092273485;-0.4499517;2.036231;-0.4085287;1.952246;0.6062179;1.15;0.5561213;1.155639;
637949649644141184;1144.169;21;6;2.5;0.3;1.4;1500;1.66666666666667;0.2394144;0.8422153;0.273752;0.9241338;-0.4499517;2.036231;-0.4085287;1.952246;
637949649679119427;1147.668;21;6;4;0.1;1.4;1764;2.26757369614512;-0.2394138;0.8422151;-0.2115318;0.8712091;0;2.2;0.02153355;2.155865;
637949649696113026;1149.367;21;6;4;0.1;1.4;1699;2.35432607416127;0.4499513;2.036231;0.4695332;1.997657;-0.2394138;0.8422151;-0.2115318;0.8712091;
637949649713218613;1151.077;21;6;4;0.1;1.4;1710;2.33918128654971;-0.6062176;1.15;-0.5646443;1.16108;0.4499513;2.036231;0.4695332;1.997657;
637949649729212212;1152.677;21;6;4;0.1;1.4;1599;2.50156347717323;0.6893654;1.621554;0.6766541;1.588122;-0.6062176;1.15;-0.5646443;1.16108;
637949649745205813;1154.276;21;6;4;0.1;1.4;1599;2.50156347717323;-0.6893655;1.621553;-0.6512451;1.589429;0.6893654;1.621554;0.6766541;1.588122;
637949649758198737;1155.575;21;6;4;0.1;1.4;1300;3.07692307692308;0.6062179;1.15;0.5609846;1.152229;-0.6893655;1.621553;-0.6512451;1.589429;
637949649776192781;1157.374;21;6;4;0.1;1.4;1799;2.22345747637576;-0.4499517;2.036231;-0.4339791;2.00514;0.6062179;1.15;0.5609846;1.152229;
637949649791176160;1158.873;21;6;4;0.1;1.4;1499;2.66844563042028;0.2394144;0.8422153;0.2487091;0.8666404;-0.4499517;2.036231;-0.4339791;2.00514;
637949649828274512;1162.583;21;6;4.5;0.1;2.2;1810;2.48618784530387;-0.3762217;0.4663379;-0.3459552;0.505713;0;2.6;0.01729419;2.595913;
637949649847268782;1164.482;21;6;4.5;0.1;2.2;1899;2.3696682464455;0.7070663;2.342649;0.7063846;2.327629;-0.3762217;0.4663379;-0.3459552;0.505713;
637949649867263288;1166.481;21;6;4.5;0.1;2.2;1999;2.25112556278139;-0.9526277;0.9499994;-0.9319707;0.934172;0.7070663;2.342649;0.7063846;2.327629;
637949649888248007;1168.58;21;6;4.5;0.1;2.2;2099;2.14387803716055;1.083289;1.691013;1.034422;1.699923;-0.9526277;0.9499994;-0.9319707;0.934172;
637949649911243183;1170.879;21;6;4.5;0.1;2.2;2299;1.9573727707699;-1.083289;1.691012;-1.064571;1.672562;1.083289;1.691013;1.034422;1.699923;
637949649928227007;1172.578;21;6;4.5;0.1;2.2;1699;2.64861683343143;0.9526281;0.9500003;0.9424602;0.9453136;-1.083289;1.691012;-1.064571;1.672562;
637949649958213756;1175.577;21;6;4.5;0.1;2.2;2998;1.50100066711141;-0.7070671;2.342648;-0.7305248;2.34273;0.9526281;0.9500003;0.9424602;0.9453136;
637949649975317601;1177.287;21;6;4.5;0.1;2.2;1710;2.63157894736842;0.3762226;0.4663382;0.4022472;0.5059838;-0.7070671;2.342648;-0.7305248;2.34273;
637949650004304127;1180.186;21;6;1.5;1.1;2;1499;1.00066711140761;-0.3420197;0.5603072;-0.1663078;1.00752;0;2.5;0.05614647;2.097509;
637949650016296853;1181.385;21;6;1.5;1.1;2;1199;1.25104253544621;0.6427875;2.266045;0.3613513;1.945912;-0.3420197;0.5603072;-0.1663078;1.00752;
637949650030292991;1182.785;21;6;1.5;1.1;2;1399;1.07219442458899;-0.8660251;0.9999995;-0.5747235;1.392009;0.6427875;2.266045;0.3613513;1.945912;
637949650043283108;1184.084;21;6;1.5;1.1;2;1299;1.15473441108545;0.9848077;1.673648;0.5666406;1.674075;-0.8660251;0.9999995;-0.5747235;1.392009;
637949650054285677;1185.184;21;6;1.5;1.1;2;1100;1.36363636363636;-0.9848078;1.673648;-0.5492578;1.815413;0.9848077;1.673648;0.5666406;1.674075;
637949650070381750;1186.794;21;6;1.5;1.1;2;1610;0.93167701863354;0.8660256;1;0.5444064;1.248787;-0.9848078;1.673648;-0.5492578;1.815413;
637949650080384336;1187.794;21;6;1.5;1.1;2;999;1.5015015015015;-0.6427882;2.266044;-0.3205302;2.001571;0.8660256;1;0.5444064;1.248787;
637949650092377034;1188.993;21;6;1.5;1.1;2;1199;1.25104253544621;0.3420205;0.5603075;0.3471308;0.9230442;-0.6427882;2.266044;-0.3205302;2.001571;
637949650123364009;1192.091;21;6;2;0.6;1.8;1699;1.17716303708064;-0.3078177;0.6542765;-0.2569697;0.7916336;0;2.4;0.05843605;2.202789;
637949650149349857;1194.69;21;6;2;0.6;1.8;2599;0.769526741054252;0.5785087;2.18944;0.4429576;2.101915;-0.3078177;0.6542765;-0.2569697;0.7916336;
637949650163353010;1196.09;21;6;2;0.6;1.8;1400;1.42857142857143;-0.7794226;1.05;-0.6447923;1.094324;0.5785087;2.18944;0.4429576;2.101915;
637949650176335933;1197.389;21;6;2;0.6;1.8;1299;1.53964588144727;0.8863269;1.656283;0.7481341;1.630247;-0.7794226;1.05;-0.6447923;1.094324;
637949650193329756;1199.088;21;6;2;0.6;1.8;1700;1.17647058823529;-0.8863271;1.656283;-0.6806598;1.589477;0.8863269;1.656283;0.7481341;1.630247;
637949650205322455;1200.288;21;6;2;0.6;1.8;1199;1.66805671392827;0.779423;1.05;0.6851411;1.165704;-0.8863271;1.656283;-0.6806598;1.589477;
637949650216324933;1201.387;21;6;2;0.6;1.8;1100;1.81818181818182;-0.5785094;2.18944;-0.4596524;2.089136;0.779423;1.05;0.6851411;1.165704;
637949650228427657;1202.598;21;6;2;0.6;1.8;1211;1.65152766308836;0.3078185;0.6542768;0.328166;0.8470107;-0.5785094;2.18944;-0.4596524;2.089136;
637949650253413281;1205.097;21;6;3;0.2;1.4;1200;2.5;-0.2394138;0.8422151;-0.2295811;0.8644553;0;2.2;0.02333663;2.143799;
637949650270407104;1206.796;21;6;3;0.2;1.4;1699;1.76574455562095;0.4499513;2.036231;0.4529372;1.984318;-0.2394138;0.8422151;-0.2295811;0.8644553;
637949650283400029;1208.095;21;6;3;0.2;1.4;1299;2.3094688221709;-0.6062176;1.15;-0.5706958;1.162641;0.4499513;2.036231;0.4529372;1.984318;
637949650299383628;1209.694;21;6;3;0.2;1.4;1599;1.87617260787993;0.6893654;1.621554;0.6594974;1.626762;-0.6062176;1.15;-0.5706958;1.162641;
637949650313386778;1211.094;21;6;3;0.2;1.4;1400;2.14285714285714;-0.6893655;1.621553;-0.6495838;1.613218;0.6893654;1.621554;0.6594974;1.626762;
637949650334373260;1213.193;21;6;3;0.2;1.4;2099;1.4292520247737;0.6062179;1.15;0.5982339;1.165466;-0.6893655;1.621553;-0.6495838;1.613218;
637949650349371675;1214.692;21;6;3;0.2;1.4;1499;2.00133422281521;-0.4499517;2.036231;-0.3789443;1.986284;0.6062179;1.15;0.5982339;1.165466;
637949650365475302;1216.302;21;6;3;0.2;1.4;1611;1.86219739292365;0.2394144;0.8422153;0.2591386;0.9298882;-0.4499517;2.036231;-0.3789443;1.986284;
637949650852601684;1265.013;21;7;2;0.6;1.8;1100;1.81818181818182;-0.3078177;0.6542765;-0.3246339;0.8467008;0;2.4;0.03819979;2.238963;
637949650862593930;1266.013;21;7;2;0.6;1.8;999;2.002002002002;0.5785087;2.18944;0.4651897;2.183491;-0.3078177;0.6542765;-0.3246339;0.8467008;
637949650875576859;1267.312;21;7;2;0.6;1.8;1299;1.53964588144727;-0.7794226;1.05;-0.5977582;1.187204;0.5785087;2.18944;0.4651897;2.183491;
637949650887579558;1268.511;21;7;2;0.6;1.8;1200;1.66666666666667;0.8863269;1.656283;0.7850132;1.645073;-0.7794226;1.05;-0.5977582;1.187204;
637949650897571808;1269.511;21;7;2;0.6;1.8;999;2.002002002002;-0.8863271;1.656283;-0.7754289;1.645291;0.8863269;1.656283;0.7850132;1.645073;
637949650909564509;1270.711;21;7;2;0.6;1.8;1200;1.66666666666667;0.779423;1.05;0.7581284;1.124224;-0.8863271;1.656283;-0.7754289;1.645291;
637949650922557431;1272.01;21;7;2;0.6;1.8;1299;1.53964588144727;-0.5785094;2.18944;-0.4298529;2.08964;0.779423;1.05;0.7581284;1.124224;
637949650933559909;1273.109;21;7;2;0.6;1.8;1099;1.81983621474067;0.3078185;0.6542768;0.3793773;0.8615969;-0.5785094;2.18944;-0.4298529;2.08964;
637949650956655105;1275.419;21;7;1.5;1.1;2;1111;1.35013501350135;-0.3420197;0.5603072;-0.1967665;0.899614;0;2.5;0.06697436;2.277964;
637949650972658710;1277.019;21;7;1.5;1.1;2;1600;0.9375;0.6427875;2.266045;0.3615645;2.062778;-0.3420197;0.5603072;-0.1967665;0.899614;
637949650984643547;1278.218;21;7;1.5;1.1;2;1199;1.25104253544621;-0.8660251;0.9999995;-0.5379087;1.180941;0.6427875;2.266045;0.3615645;2.062778;
637949650996636248;1279.417;21;7;1.5;1.1;2;1199;1.25104253544621;0.9848077;1.673648;0.611334;1.675425;-0.8660251;0.9999995;-0.5379087;1.180941;
637949651008628950;1280.617;21;7;1.5;1.1;2;1199;1.25104253544621;-0.9848078;1.673648;-0.6441333;1.784448;0.9848077;1.673648;0.611334;1.675425;
637949651022622098;1282.016;21;7;1.5;1.1;2;1399;1.07219442458899;0.8660256;1;0.5864782;1.200145;-0.9848078;1.673648;-0.6441333;1.784448;
637949651035615021;1283.316;21;7;1.5;1.1;2;1300;1.15384615384615;-0.6427882;2.266044;-0.3842596;2.292865;0.8660256;1;0.5864782;1.200145;
637949651048618018;1284.615;21;7;1.5;1.1;2;1299;1.15473441108545;0.3420205;0.5603075;0.3919093;0.842074;-0.6427882;2.266044;-0.3842596;2.292865;
637949651074716341;1287.225;21;7;3;0.2;1.4;1311;2.2883295194508;-0.2394138;0.8422151;-0.1906043;0.8684589;0;2.2;0.005721985;2.173631;
637949651086709035;1288.424;21;7;3;0.2;1.4;1199;2.50208507089241;0.4499513;2.036231;0.4330574;2.010378;-0.2394138;0.8422151;-0.1906043;0.8684589;
637949651100702188;1289.824;21;7;3;0.2;1.4;1400;2.14285714285714;-0.6062176;1.15;-0.5971657;1.183305;0.4499513;2.036231;0.4330574;2.010378;
637949651112694886;1291.023;21;7;3;0.2;1.4;1199;2.50208507089241;0.6893654;1.621554;0.661676;1.650354;-0.6062176;1.15;-0.5971657;1.183305;
637949651129688715;1292.723;21;7;3;0.2;1.4;1699;1.76574455562095;-0.6893655;1.621553;-0.6445768;1.624649;0.6893654;1.621554;0.661676;1.650354;
637949651146682538;1294.422;21;7;3;0.2;1.4;1699;1.76574455562095;0.6062179;1.15;0.6043858;1.191186;-0.6893655;1.621553;-0.6445768;1.624649;
637949651158675235;1295.621;21;7;3;0.2;1.4;1199;2.50208507089241;-0.4499517;2.036231;-0.3738212;1.997783;0.6062179;1.15;0.6043858;1.191186;
637949651172668385;1297.021;21;7;3;0.2;1.4;1400;2.14285714285714;0.2394144;0.8422153;0.2290526;0.9030784;-0.4499517;2.036231;-0.3738212;1.997783;
637949651198654237;1299.619;21;7;2.5;0.3;1.4;1299;1.92455735180908;-0.2394138;0.8422151;-0.217737;0.8990242;0;2.2;0.03979675;2.153165;
637949651210646936;1300.819;21;7;2.5;0.3;1.4;1199;2.08507089241034;0.4499513;2.036231;0.4287366;2.002372;-0.2394138;0.8422151;-0.217737;0.8990242;
637949651222649633;1302.018;21;7;2.5;0.3;1.4;1199;2.08507089241034;-0.6062176;1.15;-0.517505;1.179871;0.4499513;2.036231;0.4287366;2.002372;
637949651235752584;1303.329;21;7;2.5;0.3;1.4;1310;1.90839694656489;0.6893654;1.621554;0.6299075;1.637513;-0.6062176;1.15;-0.517505;1.179871;
637949651248745513;1304.628;21;7;2.5;0.3;1.4;1299;1.92455735180908;-0.6893655;1.621553;-0.6473263;1.606549;0.6893654;1.621554;0.6299075;1.637513;
637949651260738207;1305.827;21;7;2.5;0.3;1.4;1199;2.08507089241034;0.6062179;1.15;0.5961649;1.185296;-0.6893655;1.621553;-0.6473263;1.606549;
637949651277732034;1307.527;21;7;2.5;0.3;1.4;1699;1.47145379635079;-0.4499517;2.036231;-0.3783695;1.974797;0.6062179;1.15;0.5961649;1.185296;
637949651305718332;1310.325;21;7;2.5;0.3;1.4;2799;0.893176134333691;0.2394144;0.8422153;0.2403708;0.9404581;-0.4499517;2.036231;-0.3783695;1.974797;
637949651336703131;1313.424;21;7;3.5;0.2;2;1599;2.18886804252658;-0.3420197;0.5603072;-0.2898419;0.5822713;0;2.5;0.01665395;2.461452;
637949651352692915;1315.023;21;7;3.5;0.2;2;1599;2.18886804252658;0.6427875;2.266045;0.63897;2.235372;-0.3420197;0.5603072;-0.2898419;0.5822713;
637949651370802241;1316.833;21;7;3.5;0.2;2;1810;1.93370165745856;-0.8660251;0.9999995;-0.8591572;0.9890496;0.6427875;2.266045;0.63897;2.235372;
637949651384785388;1318.233;21;7;3.5;0.2;2;1399;2.50178699070765;0.9848077;1.673648;0.9433771;1.688003;-0.8660251;0.9999995;-0.8591572;0.9890496;
637949651409781985;1320.732;21;7;3.5;0.2;2;2499;1.40056022408964;-0.9848078;1.673648;-0.9819145;1.673316;0.9848077;1.673648;0.9433771;1.688003;
637949651424773912;1322.231;21;7;3.5;0.2;2;1500;2.33333333333333;0.8660256;1;0.8163756;1.016658;-0.9848078;1.673648;-0.9819145;1.673316;
637949651437771844;1323.53;21;7;3.5;0.2;2;1299;2.69438029253272;-0.6427882;2.266044;-0.6480715;2.225587;0.8660256;1;0.8163756;1.016658;
637949651456866145;1325.441;21;7;3.5;0.2;2;1910;1.83246073298429;0.3420205;0.5603075;0.3295899;0.6115319;-0.6427882;2.266044;-0.6480715;2.225587;
637949651492854240;1329.039;21;7;4.5;0.1;2.2;1899;2.3696682464455;-0.3762217;0.4663379;-0.4026772;0.4849893;0;2.6;-0.009678826;2.593577;
637949651512848743;1331.038;21;7;4.5;0.1;2.2;1999;2.25112556278139;0.7070663;2.342649;0.6896055;2.31033;-0.3762217;0.4663379;-0.4026772;0.4849893;
637949651534813688;1333.237;21;7;4.5;0.1;2.2;2199;2.04638472032742;-0.9526277;0.9499994;-0.9062922;0.9602352;0.7070663;2.342649;0.6896055;2.31033;
637949651552817732;1335.036;21;7;4.5;0.1;2.2;1799;2.50138966092273;1.083289;1.691013;1.042497;1.672894;-0.9526277;0.9499994;-0.9062922;0.9602352;
637949651579793815;1337.735;21;7;4.5;0.1;2.2;2699;1.66728417932568;-1.083289;1.691012;-1.067585;1.67378;1.083289;1.691013;1.042497;1.672894;
637949651599898337;1339.745;21;7;4.5;0.1;2.2;2010;2.23880597014925;0.9526281;0.9500003;0.9409514;0.9741002;-1.083289;1.691012;-1.067585;1.67378;
637949651621883283;1341.944;21;7;4.5;0.1;2.2;2199;2.04638472032742;-0.7070671;2.342648;-0.6728847;2.314228;0.9526281;0.9500003;0.9409514;0.9741002;
637949651641877787;1343.943;21;7;4.5;0.1;2.2;1999;2.25112556278139;0.3762226;0.4663382;0.3883429;0.4722093;-0.7070671;2.342648;-0.6728847;2.314228;
637949651673864984;1347.141;21;7;4;0.1;1.4;1698;2.35571260306243;-0.2394138;0.8422151;-0.2152769;0.8617587;0;2.2;-0.00404148;2.168575;
637949651689858585;1348.741;21;7;4;0.1;1.4;1599;2.50156347717323;0.4499513;2.036231;0.4667133;2.021578;-0.2394138;0.8422151;-0.2152769;0.8617587;
637949651702867130;1350.04;21;7;4;0.1;1.4;1300;3.07692307692308;-0.6062176;1.15;-0.5915256;1.143927;0.4499513;2.036231;0.4667133;2.021578;
637949651716840275;1351.439;21;7;4;0.1;1.4;1399;2.85918513223731;0.6893654;1.621554;0.681278;1.63822;-0.6062176;1.15;-0.5915256;1.143927;
637949651733834099;1353.139;21;7;4;0.1;1.4;1700;2.35294117647059;-0.6893655;1.621553;-0.6634628;1.600051;0.6893654;1.621554;0.681278;1.63822;
637949651753945031;1355.149;21;7;4;0.1;1.4;2010;1.99004975124378;0.6062179;1.15;0.5793583;1.163218;-0.6893655;1.621553;-0.6634628;1.600051;
637949651771922757;1356.948;21;7;4;0.1;1.4;1799;2.22345747637576;-0.4499517;2.036231;-0.4150596;2.027433;0.6062179;1.15;0.5793583;1.163218;
637949651790917028;1358.847;21;7;4;0.1;1.4;1899;2.10637177461822;0.2394144;0.8422153;0.2382865;0.841418;-0.4499517;2.036231;-0.4150596;2.027433;
