637949667081725948;112.0938;22;1;4;0.1;1.4;1699;2.35432607416127;-0.2394138;0.8422151;-0.2363469;0.8784623;0;2.2;-0.004292243;2.172355;
637949667106821597;114.6037;22;1;4;0.1;1.4;2510;1.59362549800797;0.4499513;2.036231;0.4282323;2.037182;-0.2394138;0.8422151;-0.2363469;0.8784623;
637949667130816996;117.0026;22;1;4;0.1;1.4;2399;1.66736140058358;-0.6062176;1.15;-0.5804316;1.184471;0.4499513;2.036231;0.4282323;2.037182;
637949667175797120;121.5006;22;1;4;0.1;1.4;4498;0.889284126278346;0.6893654;1.621554;0.6813573;1.606929;-0.6062176;1.15;-0.5804316;1.184471;
637949667210774990;124.9989;22;1;4;0.1;1.4;3498;1.14351057747284;-0.6893655;1.621553;-0.6960132;1.642478;0.6893654;1.621554;0.6813573;1.606929;
637949667237771064;127.698;22;1;4;0.1;1.4;2699;1.48203038162282;0.6062179;1.15;0.5799111;1.174258;-0.6893655;1.621553;-0.6960132;1.642478;
637949667252754435;129.1969;22;1;4;0.1;1.4;1499;2.66844563042028;-0.4499517;2.036231;-0.4702517;2.072301;0.6062179;1.15;0.5799111;1.174258;
637949667269858295;130.9073;22;1;4;0.1;1.4;1710;2.33918128654971;0.2394144;0.8422153;0.2533705;0.8639995;-0.4499517;2.036231;-0.4702517;2.072301;
637949667298839907;133.8059;22;1;3;0.2;1.4;1699;1.76574455562095;-0.2394138;0.8422151;-0.2315327;0.9414083;0;2.2;0.05363752;2.215461;
637949667315835777;135.5054;22;1;3;0.2;1.4;1699;1.76574455562095;0.4499513;2.036231;0.438826;1.993572;-0.2394138;0.8422151;-0.2315327;0.9414083;
637949667335825083;137.5043;22;1;3;0.2;1.4;1999;1.50075037518759;-0.6062176;1.15;-0.6017264;1.233923;0.4499513;2.036231;0.438826;1.993572;
637949667348830375;138.8037;22;1;3;0.2;1.4;1299;2.3094688221709;0.6893654;1.621554;0.6077551;1.648566;-0.6062176;1.15;-0.6017264;1.233923;
637949667366824424;140.6031;22;1;3;0.2;1.4;1799;1.66759310728182;-0.6893655;1.621553;-0.6087765;1.603537;0.6893654;1.621554;0.6077551;1.648566;
637949667390799822;143.0016;22;1;3;0.2;1.4;2398;1.25104253544621;0.6062179;1.15;0.5400921;1.213182;-0.6893655;1.621553;-0.6087765;1.603537;
637949667403802745;144.3014;22;1;3;0.2;1.4;1300;2.30769230769231;-0.4499517;2.036231;-0.4231046;2.090491;0.6062179;1.15;0.5400921;1.213182;
637949667420906595;146.0116;22;1;3;0.2;1.4;1710;1.75438596491228;0.2394144;0.8422153;0.2497144;0.9343832;-0.4499517;2.036231;-0.4231046;2.090491;
637949667444892002;148.4104;22;1;2.5;0.3;1.4;1199;2.08507089241034;-0.2394138;0.8422151;-0.2410555;0.9204301;0;2.2;0.05695821;2.169877;
637949667460885595;150.0098;22;1;2.5;0.3;1.4;1599;1.56347717323327;0.4499513;2.036231;0.3905325;2.014178;-0.2394138;0.8422151;-0.2410555;0.9204301;
637949667467877169;150.7092;22;1;2.5;0.3;1.4;699;3.57653791130186;-0.6062176;1.15;-0.5773817;1.221893;0.4499513;2.036231;0.3905325;2.014178;
637949667484870998;152.4084;22;1;2.5;0.3;1.4;1699;1.47145379635079;0.6893654;1.621554;0.6254354;1.630877;-0.6062176;1.15;-0.5773817;1.221893;
637949667506865944;154.6077;22;1;2.5;0.3;1.4;2199;1.1368804001819;-0.6893655;1.621553;-0.5713686;1.634371;0.6893654;1.621554;0.6254354;1.630877;
637949667518858646;155.8072;22;1;2.5;0.3;1.4;1199;2.08507089241034;0.6062179;1.15;0.5872446;1.142847;-0.6893655;1.621553;-0.5713686;1.634371;
637949667532851798;157.2062;22;1;2.5;0.3;1.4;1399;1.78699070764832;-0.4499517;2.036231;-0.4906469;2.043026;0.6062179;1.15;0.5872446;1.142847;
637949667550955868;159.0165;22;1;2.5;0.3;1.4;1810;1.38121546961326;0.2394144;0.8422153;0.216605;0.9709047;-0.4499517;2.036231;-0.4906469;2.043026;
637949667579942397;161.9155;22;1;2;0.6;1.8;1500;1.33333333333333;-0.3078177;0.6542765;-0.248175;0.8028715;0;2.4;0.01012166;2.327488;
637949667592935315;163.215;22;1;2;0.6;1.8;1300;1.53846153846154;0.5785087;2.18944;0.5178961;2.159077;-0.3078177;0.6542765;-0.248175;0.8028715;
637949667600927116;164.0144;22;1;2;0.6;1.8;799;2.50312891113892;-0.7794226;1.05;-0.6988671;1.116891;0.5785087;2.18944;0.5178961;2.159077;
637949667612919814;165.2135;22;1;2;0.6;1.8;1199;1.66805671392827;0.8863269;1.656283;0.7653;1.738371;-0.7794226;1.05;-0.6988671;1.116891;
637949667623912288;166.3129;22;1;2;0.6;1.8;1099;1.81983621474067;-0.8863271;1.656283;-0.8403785;1.608371;0.8863269;1.656283;0.7653;1.738371;
637949667632928478;167.2141;22;1;2;0.6;1.8;901;2.21975582685905;0.779423;1.05;0.6914234;1.060272;-0.8863271;1.656283;-0.8403785;1.608371;
637949667641908549;168.1121;22;1;2;0.6;1.8;898;2.2271714922049;-0.5785094;2.18944;-0.5316759;2.269675;0.779423;1.05;0.6914234;1.060272;
637949667651907026;169.1122;22;1;2;0.6;1.8;1000;2;0.3078185;0.6542768;0.3790886;0.8505545;-0.5785094;2.18944;-0.5316759;2.269675;
637949667694997365;173.421;22;1;4.5;0.1;2.2;2208;2.03804347826087;-0.3762217;0.4663379;-0.3765585;0.5159594;0;2.6;0.008030649;2.594002;
637949667710360791;174.9651;22;1;4.5;0.1;2.2;1544;2.91450777202073;0.7070663;2.342649;0.7244428;2.296684;-0.3762217;0.4663379;-0.3765585;0.5159594;
637949667722980830;176.2194;22;1;4.5;0.1;2.2;1254;3.58851674641148;-0.9526277;0.9499994;-0.9038469;0.9448051;0.7070663;2.342649;0.7244428;2.296684;
637949667744970555;178.4185;22;1;4.5;0.1;2.2;2199;2.04638472032742;1.083289;1.691013;1.060052;1.698558;-0.9526277;0.9499994;-0.9038469;0.9448051;
637949667766960297;180.6177;22;1;4.5;0.1;2.2;2199;2.04638472032742;-1.083289;1.691012;-1.046064;1.713175;1.083289;1.691013;1.060052;1.698558;
637949667784952452;182.4168;22;1;4.5;0.1;2.2;1799;2.50138966092273;0.9526281;0.9500003;0.9738761;0.9417843;-1.083289;1.691012;-1.046064;1.713175;
637949667811048330;185.0265;22;1;4.5;0.1;2.2;2610;1.72413793103448;-0.7070671;2.342648;-0.687118;2.351085;0.9526281;0.9500003;0.9738761;0.9417843;
637949667847036425;188.625;22;1;4.5;0.1;2.2;3598;1.25069483046137;0.3762226;0.4663382;0.4147603;0.4654286;-0.7070671;2.342648;-0.687118;2.351085;
637949667874022498;191.3239;22;1;1.5;1.1;2;1100;1.36363636363636;-0.3420197;0.5603072;-0.2472749;0.5892923;0;2.5;-0.04557802;2.442659;
637949667886015200;192.5232;22;1;1.5;1.1;2;1199;1.25104253544621;0.6427875;2.266045;0.4899772;2.208461;-0.3420197;0.5603072;-0.2472749;0.5892923;
637949667896017452;193.5228;22;1;1.5;1.1;2;1000;1.5;-0.8660251;0.9999995;-0.9040808;1.037726;0.6427875;2.266045;0.4899772;2.208461;
637949667906009698;194.5221;22;1;1.5;1.1;2;999;1.5015015015015;0.9848077;1.673648;0.8614184;1.875691;-0.8660251;0.9999995;-0.9040808;1.037726;
637949667921993298;196.1213;22;1;1.5;1.1;2;1599;0.938086303939963;-0.9848078;1.673648;-0.8258591;1.770435;0.9848077;1.673648;0.8614184;1.875691;
637949667951990050;199.1201;22;1;1.5;1.1;2;2999;0.500166722240747;0.8660256;1;0.6930192;1.300981;-0.9848078;1.673648;-0.8258591;1.770435;
637949667963092546;200.2308;22;1;1.5;1.1;2;1111;1.35013501350135;-0.6427882;2.266044;-0.7555901;2.556235;0.8660256;1;0.6930192;1.300981;
637949667974085014;201.3301;22;1;1.5;1.1;2;1099;1.36487716105551;0.3420205;0.5603075;0.3643535;0.309938;-0.6427882;2.266044;-0.7555901;2.556235;
637949668014074024;205.3283;22;1;3.5;0.2;2;2001;1.74912543728136;-0.3420197;0.5603072;-0.3522795;0.6451741;0;2.5;0.01173463;2.527109;
637949668036058971;207.5271;22;1;3.5;0.2;2;2199;1.59163256025466;0.6427875;2.266045;0.6016786;2.254314;-0.3420197;0.5603072;-0.3522795;0.6451741;
637949668057043695;209.6261;22;1;3.5;0.2;2;2099;1.66746069556932;-0.8660251;0.9999995;-0.9186597;1.010474;0.6427875;2.266045;0.6016786;2.254314;
637949668081129114;212.0337;22;1;3.5;0.2;2;2408;1.45348837209302;0.9848077;1.673648;0.9248043;1.705568;-0.8660251;0.9999995;-0.9186597;1.010474;
637949668108138023;214.735;22;1;3.5;0.2;2;2701;1.29581636430952;-0.9848078;1.673648;-0.9746894;1.670806;0.9848077;1.673648;0.9248043;1.705568;
637949668137126169;217.6339;22;1;3.5;0.2;2;2899;1.20731286650569;0.8660256;1;0.8241169;1.067615;-0.9848078;1.673648;-0.9746894;1.670806;
637949668155120047;219.4331;22;1;3.5;0.2;2;1799;1.94552529182879;-0.6427882;2.266044;-0.6139155;2.276904;0.8660256;1;0.8241169;1.067615;
637949668197289541;223.6421;22;1;3.5;0.2;2;4209;0.831551437396056;0.3420205;0.5603075;0.3188661;0.6079777;-0.6427882;2.266044;-0.6139155;2.276904;
637949669403759490;344.2973;22;2;2;0.6;1.8;2211;0.904568068747173;-0.3078177;0.6542765;-0.3050257;0.8132536;0;2.4;-0.04991307;2.499711;
637949669454730959;349.3949;22;2;2;0.6;1.8;5098;0.392310710082385;0.5785087;2.18944;0.5670738;2.122739;-0.3078177;0.6542765;-0.3050257;0.8132536;
637949669496710409;353.5925;22;2;2;0.6;1.8;4198;0.476417341591234;-0.7794226;1.05;-0.7365321;1.164355;0.5785087;2.18944;0.5670738;2.122739;
637949669514704458;355.3917;22;2;2;0.6;1.8;1799;1.11172873818788;0.8863269;1.656283;0.8292343;1.69661;-0.7794226;1.05;-0.7365321;1.164355;
637949669524706704;356.3916;22;2;2;0.6;1.8;1000;2;-0.8863271;1.656283;-0.8448467;1.743916;0.8863269;1.656283;0.8292343;1.69661;
637949669575793257;361.5002;22;2;2;0.6;1.8;5109;0.391466040321002;0.779423;1.05;0.6814339;1.18211;-0.8863271;1.656283;-0.8448467;1.743916;
637949669604799114;364.4;22;2;2;0.6;1.8;2900;0.689655172413793;-0.5785094;2.18944;-0.5128913;2.157343;0.779423;1.05;0.6814339;1.18211;
637949669641759401;368.0972;22;2;2;0.6;1.8;3697;0.540979172301866;0.3078185;0.6542768;0.1603761;0.8691499;-0.5785094;2.18944;-0.5128913;2.157343;
637949669718827922;375.8047;22;2;4.5;0.1;2.2;2998;1.50100066711141;-0.3762217;0.4663379;-0.3591377;0.5017641;0;2.6;-0.0121589;2.564638;
637949669784802773;382.4014;22;2;4.5;0.1;2.2;6597;0.682128240109141;0.7070663;2.342649;0.6822451;2.336246;-0.3762217;0.4663379;-0.3591377;0.5017641;
637949669814899545;385.4112;22;2;4.5;0.1;2.2;3010;1.49501661129568;-0.9526277;0.9499994;-0.9316691;0.920302;0.7070663;2.342649;0.6822451;2.336246;
637949669842885845;388.21;22;2;4.5;0.1;2.2;2799;1.60771704180064;1.083289;1.691013;1.077879;1.672533;-0.9526277;0.9499994;-0.9316691;0.920302;
637949669931215726;397.0499;22;2;4.5;0.1;2.2;8840;0.509049773755656;-1.083289;1.691012;-1.07618;1.644066;1.083289;1.691013;1.077879;1.672533;
637949669950830143;399.0048;22;2;4.5;0.1;2.2;1955;2.30179028132992;0.9526281;0.9500003;0.9336256;0.9566864;-1.083289;1.691012;-1.07618;1.644066;
637949669976936016;401.6149;22;2;4.5;0.1;2.2;2610;1.72413793103448;-0.7070671;2.342648;-0.6904977;2.306468;0.9526281;0.9500003;0.9336256;0.9566864;
637949669995928789;403.5137;22;2;4.5;0.1;2.2;1899;2.3696682464455;0.3762226;0.4663382;0.3906477;0.4669523;-0.7070671;2.342648;-0.6904977;2.306468;
637949670048897102;408.8114;22;2;2.5;0.3;1.4;2199;1.1368804001819;-0.2394138;0.8422151;-0.2127369;0.8434199;0;2.2;-0.001901301;2.18171;
637949670059897322;409.911;22;2;2.5;0.3;1.4;1100;2.27272727272727;0.4499513;2.036231;0.4007095;1.968696;-0.2394138;0.8422151;-0.2127369;0.8434199;
637949670102880180;414.2089;22;2;2.5;0.3;1.4;4298;0.581665891112145;-0.6062176;1.15;-0.5381749;1.074718;0.4499513;2.036231;0.4007095;1.968696;
637949670131956722;417.1185;22;2;2.5;0.3;1.4;2910;0.859106529209622;0.6893654;1.621554;0.6556808;1.689091;-0.6062176;1.15;-0.5381749;1.074718;
637949670142959193;418.2185;22;2;2.5;0.3;1.4;1100;2.27272727272727;-0.6893655;1.621553;-0.546858;1.620481;0.6893654;1.621554;0.6556808;1.689091;
637949670154951899;419.4179;22;2;2.5;0.3;1.4;1199;2.08507089241034;0.6062179;1.15;0.620046;1.205124;-0.6893655;1.621553;-0.546858;1.620481;
637949670203932920;424.3157;22;2;2.5;0.3;1.4;4898;0.51041241322989;-0.4499517;2.036231;-0.4652932;2.012108;0.6062179;1.15;0.620046;1.205124;
637949670220913016;426.0144;22;2;2.5;0.3;1.4;1699;1.47145379635079;0.2394144;0.8422153;0.2348501;0.9172684;-0.4499517;2.036231;-0.4652932;2.012108;
637949670270006873;430.9235;22;2;3;0.2;1.4;1911;1.56985871271586;-0.2394138;0.8422151;-0.2393951;0.8874899;0;2.2;-0.003643172;2.163758;
637949670286000475;432.5227;22;2;3;0.2;1.4;1599;1.87617260787993;0.4499513;2.036231;0.4688432;1.998438;-0.2394138;0.8422151;-0.2393951;0.8874899;
637949670324979247;436.421;22;2;3;0.2;1.4;3898;0.769625448948179;-0.6062176;1.15;-0.5926349;1.153309;0.4499513;2.036231;0.4688432;1.998438;
637949670350965095;439.0195;22;2;3;0.2;1.4;2599;1.15429011158138;0.6893654;1.621554;0.6468024;1.601371;-0.6062176;1.15;-0.5926349;1.153309;
637949670380961849;442.0184;22;2;3;0.2;1.4;2999;1.00033344448149;-0.6893655;1.621553;-0.6584027;1.593364;0.6893654;1.621554;0.6468024;1.601371;
637949670406937698;444.6169;22;2;3;0.2;1.4;2599;1.15429011158138;0.6062179;1.15;0.5729532;1.087622;-0.6893655;1.621553;-0.6584027;1.593364;
637949670468031442;450.7256;22;2;3;0.2;1.4;6109;0.491078736290719;-0.4499517;2.036231;-0.3845892;2.003304;0.6062179;1.15;0.5729532;1.087622;
637949670538109374;457.7333;22;2;3;0.2;1.4;7008;0.428082191780822;0.2394144;0.8422153;0.2130253;0.8592427;-0.4499517;2.036231;-0.3845892;2.003304;
637949670571087334;461.0316;22;2;3.5;0.2;2;1299;2.69438029253272;-0.3420197;0.5603072;-0.2591825;0.5599756;0;2.5;-0.0007392848;2.442303;
637949670584080569;462.3308;22;2;3.5;0.2;2;1299;2.69438029253272;0.6427875;2.266045;0.6924147;2.302962;-0.3420197;0.5603072;-0.2591825;0.5599756;
637949670608186023;464.7413;22;2;3.5;0.2;2;2411;1.45167980091248;-0.8660251;0.9999995;-0.8183526;0.9852348;0.6427875;2.266045;0.6924147;2.302962;
637949670655156595;469.4388;22;2;3.5;0.2;2;4697;0.745156482861401;0.9848077;1.673648;0.9712601;1.617601;-0.8660251;0.9999995;-0.8183526;0.9852348;
637949670677151547;471.6377;22;2;3.5;0.2;2;2199;1.59163256025466;-0.9848078;1.673648;-0.9460394;1.631678;0.9848077;1.673648;0.9712601;1.617601;
637949670789206765;482.8435;22;2;3.5;0.2;2;11206;0.312332678922006;0.8660256;1;0.8001381;1.03725;-0.9848078;1.673648;-0.9460394;1.631678;
637949670807200818;484.6426;22;2;3.5;0.2;2;1799;1.94552529182879;-0.6427882;2.266044;-0.6271046;2.270444;0.8660256;1;0.8001381;1.03725;
637949670821193969;486.0423;22;2;3.5;0.2;2;1400;2.5;0.3420205;0.5603075;0.3150393;0.6305596;-0.6427882;2.266044;-0.6271046;2.270444;
637949670873170799;491.2398;22;2;4;0.1;1.4;3098;1.2911555842479;-0.2394138;0.8422151;-0.2052674;0.8559777;0;2.2;-0.009781906;2.159272;
637949670910146305;494.9377;22;2;4;0.1;1.4;3698;1.08166576527853;0.4499513;2.036231;0.4871294;2.058876;-0.2394138;0.8422151;-0.2052674;0.8559777;
637949670934261734;497.3485;22;2;4;0.1;1.4;2411;1.65906262961427;-0.6062176;1.15;-0.5832163;1.145398;0.4499513;2.036231;0.4871294;2.058876;
637949670953246788;499.2473;22;2;4;0.1;1.4;1899;2.10637177461822;0.6893654;1.621554;0.6668501;1.594551;-0.6062176;1.15;-0.5832163;1.145398;
637949671013210311;505.2442;22;2;4;0.1;1.4;5997;0.667000166750042;-0.6893655;1.621553;-0.6823004;1.606425;0.6893654;1.621554;0.6668501;1.594551;
637949671031204359;507.0437;22;2;4;0.1;1.4;1799;2.22345747637576;0.6062179;1.15;0.5823823;1.154301;-0.6893655;1.621553;-0.6823004;1.606425;
637949671057280225;509.6503;22;2;4;0.1;1.4;2607;1.5343306482547;-0.4499517;2.036231;-0.4479695;2.041339;0.6062179;1.15;0.5823823;1.154301;
637949671107281480;514.6511;22;2;4;0.1;1.4;5001;0.799840031993601;0.2394144;0.8422153;0.247774;0.827251;-0.4499517;2.036231;-0.4479695;2.041339;
637949671127384747;516.6613;22;2;1.5;1.1;2;900;1.66666666666667;-0.3420197;0.5603072;-0.2172677;0.8902844;0;2.5;0.008605083;2.469369;
637949671144374764;518.3603;22;2;1.5;1.1;2;1699;0.882872277810477;0.6427875;2.266045;0.4817298;2.185456;-0.3420197;0.5603072;-0.2172677;0.8902844;
637949671188354334;522.7585;22;2;1.5;1.1;2;4398;0.34106412005457;-0.8660251;0.9999995;-0.7539508;1.158676;0.6427875;2.266045;0.4817298;2.185456;
637949671208462919;524.7687;22;2;1.5;1.1;2;2010;0.746268656716418;0.9848077;1.673648;0.720965;1.731196;-0.8660251;0.9999995;-0.7539508;1.158676;
637949671243449976;528.2673;22;2;1.5;1.1;2;3499;0.428693912546442;-0.9848078;1.673648;-0.875725;1.83817;0.9848077;1.673648;0.720965;1.731196;
637949671273420871;531.2653;22;2;1.5;1.1;2;2998;0.500333555703803;0.8660256;1;0.7021961;1.18864;-0.9848078;1.673648;-0.875725;1.83817;
637949671281422680;532.0649;22;2;1.5;1.1;2;800;1.875;-0.6427882;2.266044;-0.5417793;2.348861;0.8660256;1;0.7021961;1.18864;
637949671288414250;532.7646;22;2;1.5;1.1;2;700;2.14285714285714;0.3420205;0.5603075;0.2603836;1.003958;-0.6427882;2.266044;-0.5417793;2.348861;
637949672219764904;625.8997;22;3;3.5;0.2;2;6198;0.564698289770894;-0.3420197;0.5603072;-0.3387249;0.6012167;0;2.5;-0.01969284;2.495607;
637949672255743003;629.4976;22;3;3.5;0.2;2;3598;0.972762645914397;0.6427875;2.266045;0.610539;2.267107;-0.3420197;0.5603072;-0.3387249;0.6012167;
637949672271856630;631.1081;22;3;3.5;0.2;2;1611;2.17256362507759;-0.8660251;0.9999995;-0.8215154;1.078882;0.6427875;2.266045;0.610539;2.267107;
637949672308834952;634.8062;22;3;3.5;0.2;2;3698;0.946457544618713;0.9848077;1.673648;0.9033989;1.639219;-0.8660251;0.9999995;-0.8215154;1.078882;
637949672322838104;636.2056;22;3;3.5;0.2;2;1399;2.50178699070765;-0.9848078;1.673648;-0.9209906;1.646412;0.9848077;1.673648;0.9033989;1.639219;
637949672351814630;639.1041;22;3;3.5;0.2;2;2898;1.20772946859903;0.8660256;1;0.8120815;1.083046;-0.9848078;1.673648;-0.9209906;1.646412;
637949672362817096;640.2037;22;3;3.5;0.2;2;1100;3.18181818181818;-0.6427882;2.266044;-0.6043278;2.223642;0.8660256;1;0.8120815;1.083046;
637949672383801776;642.3027;22;3;3.5;0.2;2;2099;1.66746069556932;0.3420205;0.5603075;0.3419434;0.6202298;-0.6427882;2.266044;-0.6043278;2.223642;
637949672430886640;647.0118;22;3;4;0.1;1.4;2610;1.53256704980843;-0.2394138;0.8422151;-0.2517591;0.8510871;0;2.2;0.006904535;2.174782;
637949672492863804;653.2089;22;3;4;0.1;1.4;6197;0.645473616265935;0.4499513;2.036231;0.446274;2.005706;-0.2394138;0.8422151;-0.2517591;0.8510871;
637949672506856948;654.6084;22;3;4;0.1;1.4;1399;2.85918513223731;-0.6062176;1.15;-0.5671504;1.174227;0.4499513;2.036231;0.446274;2.005706;
637949672555937995;659.5171;22;3;4;0.1;1.4;4909;0.814829904257486;0.6893654;1.621554;0.6735283;1.643504;-0.6062176;1.15;-0.5671504;1.174227;
637949672595916995;663.515;22;3;4;0.1;1.4;3998;1.00050025012506;-0.6893655;1.621553;-0.6638703;1.606353;0.6893654;1.621554;0.6735283;1.643504;
637949672622923073;666.215;22;3;4;0.1;1.4;2700;1.48148148148148;0.6062179;1.15;0.5770614;1.14897;-0.6893655;1.621553;-0.6638703;1.606353;
637949672654890267;669.4124;22;3;4;0.1;1.4;3197;1.25117297466375;-0.4499517;2.036231;-0.4363275;2.001469;0.6062179;1.15;0.5770614;1.14897;
637949672679885894;671.9113;22;3;4;0.1;1.4;2499;1.60064025610244;0.2394144;0.8422153;0.2413598;0.8258259;-0.4499517;2.036231;-0.4363275;2.001469;
637949672730967391;677.0198;22;3;1.5;1.1;2;1999;0.750375187593797;-0.3420197;0.5603072;-0.3264607;0.757517;0;2.5;-0.08131737;2.505663;
637949672750961894;679.019;22;3;1.5;1.1;2;1999;0.750375187593797;0.6427875;2.266045;0.5107816;2.335459;-0.3420197;0.5603072;-0.3264607;0.757517;
637949672766950562;680.618;22;3;1.5;1.1;2;1599;0.938086303939963;-0.8660251;0.9999995;-0.7840352;1.250979;0.6427875;2.266045;0.5107816;2.335459;
637949672786950243;682.6174;22;3;1.5;1.1;2;1999;0.750375187593797;0.9848077;1.673648;0.8282262;1.804105;-0.8660251;0.9999995;-0.7840352;1.250979;
637949672827037686;686.6264;22;3;1.5;1.1;2;4009;0.374158144175605;-0.9848078;1.673648;-0.8009133;1.776338;0.9848077;1.673648;0.8282262;1.804105;
637949672841026674;688.0258;22;3;1.5;1.1;2;1399;1.07219442458899;0.8660256;1;0.6583762;1.164782;-0.9848078;1.673648;-0.8009133;1.776338;
637949672858020500;689.7252;22;3;1.5;1.1;2;1699;0.882872277810477;-0.6427882;2.266044;-0.5569369;2.340683;0.8660256;1;0.6583762;1.164782;
637949672873023875;691.225;22;3;1.5;1.1;2;1500;1;0.3420205;0.5603075;0.2519602;0.9144522;-0.6427882;2.266044;-0.5569369;2.340683;
637949672958973223;699.8204;22;3;3;0.2;1.4;6996;0.428816466552316;-0.2394138;0.8422151;-0.2363449;0.8508171;0;2.2;0.07612604;2.239326;
637949673011064946;705.0292;22;3;3;0.2;1.4;5209;0.575926281435976;0.4499513;2.036231;0.3959629;1.982179;-0.2394138;0.8422151;-0.2363449;0.8508171;
637949673033049894;707.2281;22;3;3;0.2;1.4;2199;1.36425648021828;-0.6062176;1.15;-0.5804315;1.167675;0.4499513;2.036231;0.3959629;1.982179;
637949673057155319;709.6379;22;3;3;0.2;1.4;2410;1.2448132780083;0.6893654;1.621554;0.6259702;1.614237;-0.6062176;1.15;-0.5804315;1.167675;
637949673081140719;712.037;22;3;3;0.2;1.4;2399;1.25052105043768;-0.6893655;1.621553;-0.7011611;1.594714;0.6893654;1.621554;0.6259702;1.614237;
637949673137224806;717.6455;22;3;3;0.2;1.4;5608;0.534950071326676;0.6062179;1.15;0.5773339;1.216351;-0.6893655;1.621553;-0.7011611;1.594714;
637949673207309151;724.6533;22;3;3;0.2;1.4;7008;0.428082191780822;-0.4499517;2.036231;-0.4347501;2.022678;0.6062179;1.15;0.5773339;1.216351;
637949673258397825;729.7625;22;3;3;0.2;1.4;5109;0.587199060481503;0.2394144;0.8422153;0.242966;0.8760475;-0.4499517;2.036231;-0.4347501;2.022678;
637949673298376824;733.7602;22;3;2.5;0.3;1.4;2299;1.08742931709439;-0.2394138;0.8422151;-0.2383684;0.932549;0;2.2;-0.02717979;2.152184;
637949673306368622;734.5598;22;3;2.5;0.3;1.4;800;3.125;0.4499513;2.036231;0.3920205;2.051023;-0.2394138;0.8422151;-0.2383684;0.932549;
637949673349468326;738.8693;22;3;2.5;0.3;1.4;4310;0.580046403712297;-0.6062176;1.15;-0.6799663;1.27216;0.4499513;2.036231;0.3920205;2.051023;
637949673371453271;741.0679;22;3;2.5;0.3;1.4;2199;1.1368804001819;0.6893654;1.621554;0.5836391;1.62692;-0.6062176;1.15;-0.6799663;1.27216;
637949673440418795;747.965;22;3;2.5;0.3;1.4;6897;0.362476439031463;-0.6893655;1.621553;-0.6824927;1.628811;0.6893654;1.621554;0.5836391;1.62692;
637949673466404643;750.5635;22;3;2.5;0.3;1.4;2599;0.961908426317814;0.6062179;1.15;0.5484743;1.172796;-0.6893655;1.621553;-0.6824927;1.628811;
637949673484398691;752.3628;22;3;2.5;0.3;1.4;1799;1.38966092273485;-0.4499517;2.036231;-0.3929165;1.971702;0.6062179;1.15;0.5484743;1.172796;
637949673530491038;756.9718;22;3;2.5;0.3;1.4;4609;0.54241701019744;0.2394144;0.8422153;0.2613817;0.9026085;-0.4499517;2.036231;-0.3929165;1.971702;
637949673602455030;764.1686;22;3;4.5;0.1;2.2;3299;1.36404971203395;-0.3762217;0.4663379;-0.3680534;0.4501996;0;2.6;-0.001349362;2.594509;
637949673660541186;769.9766;22;3;4.5;0.1;2.2;5808;0.774793388429752;0.7070663;2.342649;0.6955652;2.308773;-0.3762217;0.4663379;-0.3680534;0.4501996;
637949673755612580;779.4836;22;3;4.5;0.1;2.2;9507;0.473335437046387;-0.9526277;0.9499994;-0.9555367;0.9142318;0.7070663;2.342649;0.6955652;2.308773;
637949673905646352;794.4876;22;3;4.5;0.1;2.2;15004;0.299920021327646;1.083289;1.691013;1.060029;1.673093;-0.9526277;0.9499994;-0.9555367;0.9142318;
637949673960617282;799.985;22;3;4.5;0.1;2.2;5497;0.818628342732399;-1.083289;1.691012;-1.070345;1.667481;1.083289;1.691013;1.060029;1.673093;
637949673994605421;803.3835;22;3;4.5;0.1;2.2;3399;1.32391879964696;0.9526281;0.9500003;0.9140832;0.9302154;-1.083289;1.691012;-1.070345;1.667481;
637949674056690574;809.5918;22;3;4.5;0.1;2.2;6208;0.724871134020619;-0.7070671;2.342648;-0.6988683;2.304693;0.9526281;0.9500003;0.9140832;0.9302154;
637949674082676423;812.1908;22;3;4.5;0.1;2.2;2599;1.73143516737207;0.3762226;0.4663382;0.3452141;0.4676944;-0.7070671;2.342648;-0.6988683;2.304693;
637949674125656097;816.4885;22;3;2;0.6;1.8;2299;0.869943453675511;-0.3078177;0.6542765;-0.2712794;0.8071837;0;2.4;-0.03832088;2.271821;
637949674141649698;818.088;22;3;2;0.6;1.8;1599;1.25078173858662;0.5785087;2.18944;0.5097101;2.228239;-0.3078177;0.6542765;-0.2712794;0.8071837;
637949674161644189;820.0869;22;3;2;0.6;1.8;1999;1.00050025012506;-0.7794226;1.05;-0.7270713;1.064363;0.5785087;2.18944;0.5097101;2.228239;
637949674183629146;822.2858;22;3;2;0.6;1.8;2199;0.909504320145521;0.8863269;1.656283;0.8635636;1.696208;-0.7794226;1.05;-0.7270713;1.064363;
637949674194731643;823.3964;22;3;2;0.6;1.8;1111;1.8001800180018;-0.8863271;1.656283;-0.748543;1.74915;0.8863269;1.656283;0.8635636;1.696208;
637949674207734569;824.6959;22;3;2;0.6;1.8;1299;1.53964588144727;0.779423;1.05;0.7369644;1.017975;-0.8863271;1.656283;-0.748543;1.74915;
637949674224718399;826.3951;22;3;2;0.6;1.8;1699;1.17716303708064;-0.5785094;2.18944;-0.4996002;2.252342;0.779423;1.05;0.7369644;1.017975;
637949674234720645;827.3949;22;3;2;0.6;1.8;1000;2;0.3078185;0.6542768;0.2809036;0.6311648;-0.5785094;2.18944;-0.4996002;2.252342;
637949675771247925;981.0457;22;4;3;0.2;1.4;6808;0.440658049353702;-0.2394138;0.8422151;-0.2383717;0.8772203;0;2.2;0.02157821;2.21707;
637949675918286108;995.75;22;4;3;0.2;1.4;14704;0.204026115342764;0.4499513;2.036231;0.468762;2.052401;-0.2394138;0.8422151;-0.2383717;0.8772203;
637949675950273311;998.9487;22;4;3;0.2;1.4;3199;0.937793060331354;-0.6062176;1.15;-0.6219177;1.209402;0.4499513;2.036231;0.468762;2.052401;
637949675970265030;1000.948;22;4;3;0.2;1.4;1999;1.50075037518759;0.6893654;1.621554;0.6667561;1.620191;-0.6062176;1.15;-0.6219177;1.209402;
637949676002247858;1004.146;22;4;3;0.2;1.4;3199;0.937793060331354;-0.6893655;1.621553;-0.6922497;1.616801;0.6893654;1.621554;0.6667561;1.620191;
637949676119304204;1015.852;22;4;3;0.2;1.4;11706;0.256278831368529;0.6062179;1.15;0.5967902;1.196573;-0.6893655;1.621553;-0.6922497;1.616801;
637949676145290050;1018.451;22;4;3;0.2;1.4;2599;1.15429011158138;-0.4499517;2.036231;-0.4045202;2.037051;0.6062179;1.15;0.5967902;1.196573;
637949676183278605;1022.249;22;4;3;0.2;1.4;3798;0.789889415481833;0.2394144;0.8422153;0.2144958;0.8855691;-0.4499517;2.036231;-0.4045202;2.037051;
637949676273343918;1031.256;22;4;3.5;0.2;2;2998;1.16744496330887;-0.3420197;0.5603072;-0.3464212;0.5988877;0;2.5;-0.02244143;2.487603;
637949676365413088;1040.463;22;4;3.5;0.2;2;9207;0.380145541435864;0.6427875;2.266045;0.608265;2.288278;-0.3420197;0.5603072;-0.3464212;0.5988877;
637949676382406918;1042.162;22;4;3.5;0.2;2;1699;2.06003531489111;-0.8660251;0.9999995;-0.7981845;0.9938191;0.6427875;2.266045;0.608265;2.288278;
637949676407392538;1044.661;22;4;3.5;0.2;2;2499;1.40056022408964;0.9848077;1.673648;0.9514066;1.656791;-0.8660251;0.9999995;-0.7981845;0.9938191;
637949676429377490;1046.859;22;4;3.5;0.2;2;2199;1.59163256025466;-0.9848078;1.673648;-0.9427461;1.643904;0.9848077;1.673648;0.9514066;1.656791;
637949676461476025;1050.069;22;4;3.5;0.2;2;3210;1.09034267912773;0.8660256;1;0.8679102;0.9868473;-0.9848078;1.673648;-0.9427461;1.643904;
637949676483474979;1052.268;22;4;3.5;0.2;2;2199;1.59163256025466;-0.6427882;2.266044;-0.6139103;2.252607;0.8660256;1;0.8679102;0.9868473;
637949676529450290;1056.866;22;4;3.5;0.2;2;4598;0.761200521966072;0.3420205;0.5603075;0.3360116;0.4789776;-0.6427882;2.266044;-0.6139103;2.252607;
637949676618520338;1065.773;22;4;2.5;0.3;1.4;1898;1.31717597471022;-0.2394138;0.8422151;-0.228632;0.8426042;0;2.2;0.04266107;2.137928;
637949676644506188;1068.372;22;4;2.5;0.3;1.4;2599;0.961908426317814;0.4499513;2.036231;0.4581344;2.135423;-0.2394138;0.8422151;-0.228632;0.8426042;
637949676656498888;1069.571;22;4;2.5;0.3;1.4;1199;2.08507089241034;-0.6062176;1.15;-0.6499559;1.166664;0.4499513;2.036231;0.4581344;2.135423;
637949676681474507;1072.07;22;4;2.5;0.3;1.4;2499;1.00040016006403;0.6893654;1.621554;0.6014047;1.688067;-0.6062176;1.15;-0.6499559;1.166664;
637949676694467433;1073.37;22;4;2.5;0.3;1.4;1300;1.92307692307692;-0.6893655;1.621553;-0.6972468;1.584127;0.6893654;1.621554;0.6014047;1.688067;
637949676709570833;1074.88;22;4;2.5;0.3;1.4;1510;1.65562913907285;0.6062179;1.15;0.6180239;1.020569;-0.6893655;1.621553;-0.6972468;1.584127;
637949676736566909;1077.579;22;4;2.5;0.3;1.4;2699;0.926268988514265;-0.4499517;2.036231;-0.4114507;2.019106;0.6062179;1.15;0.6180239;1.020569;
637949676761542527;1080.078;22;4;2.5;0.3;1.4;2499;1.00040016006403;0.2394144;0.8422153;0.2604181;0.8081745;-0.4499517;2.036231;-0.4114507;2.019106;
637949676818627243;1085.786;22;4;4;0.1;1.4;3110;1.28617363344051;-0.2394138;0.8422151;-0.2341759;0.8326883;0;2.2;0.01773643;2.191483;
637949676845619105;1088.485;22;4;4;0.1;1.4;2699;1.48203038162282;0.4499513;2.036231;0.4228422;1.999595;-0.2394138;0.8422151;-0.2341759;0.8326883;
637949676872604880;1091.183;22;4;4;0.1;1.4;2698;1.48257968865827;-0.6062176;1.15;-0.5969682;1.123883;0.4499513;2.036231;0.4228422;1.999595;
637949676906975048;1094.627;22;4;4;0.1;1.4;3444;1.16144018583043;0.6893654;1.621554;0.6517563;1.590123;-0.6062176;1.15;-0.5969682;1.123883;
637949676936691735;1097.592;22;4;4;0.1;1.4;2964;1.34952766531714;-0.6893655;1.621553;-0.6742034;1.573915;0.6893654;1.621554;0.6517563;1.590123;
637949676957676457;1099.691;22;4;4;0.1;1.4;2099;1.90566936636494;0.6062179;1.15;0.5836101;1.147647;-0.6893655;1.621553;-0.6742034;1.573915;
637949676980671637;1101.99;22;4;4;0.1;1.4;2299;1.73988690735102;-0.4499517;2.036231;-0.4227199;2.011707;0.6062179;1.15;0.5836101;1.147647;
637949677072742361;1111.197;22;4;4;0.1;1.4;9208;0.434404865334492;0.2394144;0.8422153;0.2576178;0.8233392;-0.4499517;2.036231;-0.4227199;2.011707;
637949677128704952;1116.794;22;4;4.5;0.1;2.2;3498;1.28644939965695;-0.3762217;0.4663379;-0.3651595;0.4334022;0;2.6;0.005020681;2.603272;
637949677149809705;1118.904;22;4;4.5;0.1;2.2;2110;2.13270142180095;0.7070663;2.342649;0.6865078;2.318769;-0.3762217;0.4663379;-0.3651595;0.4334022;
637949677184797577;1122.402;22;4;4.5;0.1;2.2;3498;1.28644939965695;-0.9526277;0.9499994;-0.9466527;0.9498072;0.7070663;2.342649;0.6865078;2.318769;
637949677206892990;1124.612;22;4;4.5;0.1;2.2;2210;2.03619909502262;1.083289;1.691013;1.056248;1.66938;-0.9526277;0.9499994;-0.9466527;0.9498072;
637949677234876374;1127.411;22;4;4.5;0.1;2.2;2799;1.60771704180064;-1.083289;1.691012;-1.068569;1.667379;1.083289;1.691013;1.056248;1.66938;
637949677257870062;1129.71;22;4;4.5;0.1;2.2;2299;1.9573727707699;0.9526281;0.9500003;0.9326959;0.9594629;-1.083289;1.691012;-1.068569;1.667379;
637949677310185784;1134.948;22;4;4.5;0.1;2.2;5238;0.859106529209622;-0.7070671;2.342648;-0.6895323;2.296331;0.9526281;0.9500003;0.9326959;0.9594629;
637949677332944792;1137.217;22;4;4.5;0.1;2.2;2269;1.98325253415602;0.3762226;0.4663382;0.4037167;0.4797063;-0.7070671;2.342648;-0.6895323;2.296331;
637949677368925680;1140.816;22;4;2;0.6;1.8;1999;1.00050025012506;-0.3078177;0.6542765;-0.315647;0.8640434;0;2.4;0.02142488;2.393778;
637949677382928830;1142.216;22;4;2;0.6;1.8;1400;1.42857142857143;0.5785087;2.18944;0.5896698;2.212158;-0.3078177;0.6542765;-0.315647;0.8640434;
637949677395911751;1143.515;22;4;2;0.6;1.8;1299;1.53964588144727;-0.7794226;1.05;-0.7309806;1.096724;0.5785087;2.18944;0.5896698;2.212158;
637949677405914002;1144.514;22;4;2;0.6;1.8;1000;2;0.8863269;1.656283;0.7929732;1.589577;-0.7794226;1.05;-0.7309806;1.096724;
637949677426018522;1146.525;22;4;2;0.6;1.8;2011;0.994530084535057;-0.8863271;1.656283;-0.770102;1.659457;0.8863269;1.656283;0.7929732;1.589577;
637949677441011902;1148.024;22;4;2;0.6;1.8;1499;1.33422281521014;0.779423;1.05;0.6297247;1.146857;-0.8863271;1.656283;-0.770102;1.659457;
637949677455015067;1149.424;22;4;2;0.6;1.8;1400;1.42857142857143;-0.5785094;2.18944;-0.4145615;2.298573;0.779423;1.05;0.6297247;1.146857;
637949677465007302;1150.423;22;4;2;0.6;1.8;999;2.002002002002;0.3078185;0.6542768;0.2536943;0.9489951;-0.5785094;2.18944;-0.4145615;2.298573;
637949677496104304;1153.533;22;4;1.5;1.1;2;2010;0.746268656716418;-0.3420197;0.5603072;-0.2118149;0.9509087;0;2.5;0.04045606;2.140597;
637949677506106552;1154.533;22;4;1.5;1.1;2;1000;1.5;0.6427875;2.266045;0.4438652;2.252187;-0.3420197;0.5603072;-0.2118149;0.9509087;
637949677514088352;1155.331;22;4;1.5;1.1;2;799;1.87734668335419;-0.8660251;0.9999995;-0.689347;1.360584;0.6427875;2.266045;0.4438652;2.252187;
637949677527081273;1156.631;22;4;1.5;1.1;2;1299;1.15473441108545;0.9848077;1.673648;0.4734044;1.688068;-0.8660251;0.9999995;-0.689347;1.360584;
637949677551066675;1159.03;22;4;1.5;1.1;2;2399;0.625260525218841;-0.9848078;1.673648;-0.6345512;1.928129;0.9848077;1.673648;0.4734044;1.688068;
637949677566060047;1160.529;22;4;1.5;1.1;2;1499;1.00066711140761;0.8660256;1;0.483506;1.158148;-0.9848078;1.673648;-0.6345512;1.928129;
637949677572381472;1161.168;22;4;1.5;1.1;2;639;2.34741784037559;-0.6427882;2.266044;-0.1326158;2.116766;0.8660256;1;0.483506;1.158148;
637949677587044772;1162.628;22;4;1.5;1.1;2;1460;1.02739726027397;0.3420205;0.5603075;0.2018743;0.9725731;-0.6427882;2.266044;-0.1326158;2.116766;
637949678355358697;1239.459;22;5;4.5;0.1;2.2;6297;0.714626012386851;-0.3762217;0.4663379;-0.3784513;0.4264504;0;2.6;-0.005782182;2.58371;
637949678397453017;1243.668;22;5;4.5;0.1;2.2;4209;1.06913756236636;0.7070663;2.342649;0.7054274;2.308202;-0.3762217;0.4663379;-0.3784513;0.4264504;
637949678420447196;1245.967;22;5;4.5;0.1;2.2;2299;1.9573727707699;-0.9526277;0.9499994;-0.9265859;0.9490964;0.7070663;2.342649;0.7054274;2.308202;
637949678452420920;1249.165;22;5;4.5;0.1;2.2;3198;1.40712945590994;1.083289;1.691013;1.054716;1.675023;-0.9526277;0.9499994;-0.9265859;0.9490964;
637949678478414703;1251.764;22;5;4.5;0.1;2.2;2599;1.73143516737207;-1.083289;1.691012;-1.06292;1.659674;1.083289;1.691013;1.054716;1.675023;
637949678571482992;1261.071;22;5;4.5;0.1;2.2;9307;0.483507037713549;0.9526281;0.9500003;0.9718241;0.9353681;-1.083289;1.691012;-1.06292;1.659674;
637949678684539559;1272.377;22;5;4.5;0.1;2.2;11306;0.398018751105608;-0.7070671;2.342648;-0.7022694;2.333051;0.9526281;0.9500003;0.9718241;0.9353681;
637949678741512384;1278.074;22;5;4.5;0.1;2.2;5697;0.789889415481833;0.3762226;0.4663382;0.3397431;0.4919635;-0.7070671;2.342648;-0.7022694;2.333051;
637949678813598609;1285.282;22;5;2.5;0.3;1.4;1799;1.38966092273485;-0.2394138;0.8422151;-0.2510735;0.870159;0;2.2;-0.02346243;2.152426;
637949678842575130;1288.181;22;5;2.5;0.3;1.4;2899;0.862366333218351;0.4499513;2.036231;0.4030281;1.951961;-0.2394138;0.8422151;-0.2510735;0.870159;
637949678860569174;1289.98;22;5;2.5;0.3;1.4;1799;1.38966092273485;-0.6062176;1.15;-0.5195091;1.17723;0.4499513;2.036231;0.4030281;1.951961;
637949678905545276;1294.478;22;5;2.5;0.3;1.4;4498;0.555802578923966;0.6893654;1.621554;0.6305767;1.639226;-0.6062176;1.15;-0.5195091;1.17723;
637949678932653136;1297.188;22;5;2.5;0.3;1.4;2710;0.922509225092251;-0.6893655;1.621553;-0.6264694;1.616032;0.6893654;1.621554;0.6305767;1.639226;
637949678981624458;1302.085;22;5;2.5;0.3;1.4;4898;0.51041241322989;0.6062179;1.15;0.5491861;1.201295;-0.6893655;1.621553;-0.6264694;1.616032;
637949678992906995;1303.221;22;5;2.5;0.3;1.4;1136;2.20070422535211;-0.4499517;2.036231;-0.5886293;2.058366;0.6062179;1.15;0.5491861;1.201295;
637949679015607635;1305.484;22;5;2.5;0.3;1.4;2263;1.10472823685373;0.2394144;0.8422153;0.2655116;0.8879164;-0.4499517;2.036231;-0.5886293;2.058366;
637949679055700055;1309.493;22;5;2;0.6;1.8;900;2.22222222222222;-0.3078177;0.6542765;-0.2715489;0.7435902;0;2.4;0.000426843;2.330559;
637949679067692755;1310.692;22;5;2;0.6;1.8;1199;1.66805671392827;0.5785087;2.18944;0.5528326;2.150841;-0.3078177;0.6542765;-0.2715489;0.7435902;
637949679078695230;1311.792;22;5;2;0.6;1.8;1100;1.81818181818182;-0.7794226;1.05;-0.7260064;1.070867;0.5785087;2.18944;0.5528326;2.150841;
637949679095679054;1313.491;22;5;2;0.6;1.8;1699;1.17716303708064;0.8863269;1.656283;0.8435917;1.662349;-0.7794226;1.05;-0.7260064;1.070867;
637949679112672878;1315.191;22;5;2;0.6;1.8;1699;1.17716303708064;-0.8863271;1.656283;-0.7940884;1.640221;0.8863269;1.656283;0.8435917;1.662349;
637949679120674682;1315.99;22;5;2;0.6;1.8;800;2.5;0.779423;1.05;0.6065589;1.212101;-0.8863271;1.656283;-0.7940884;1.640221;
637949679130666929;1316.99;22;5;2;0.6;1.8;999;2.002002002002;-0.5785094;2.18944;-0.3659216;2.317662;0.779423;1.05;0.6065589;1.212101;
637949679140669181;1317.989;22;5;2;0.6;1.8;1000;2;0.3078185;0.6542768;0.2405141;0.8661451;-0.5785094;2.18944;-0.3659216;2.317662;
637949679171646155;1321.088;22;5;3;0.2;1.4;1600;1.875;-0.2394138;0.8422151;-0.2329227;0.8552172;0;2.2;0.02237036;2.179276;
637949679184649082;1322.387;22;5;3;0.2;1.4;1299;2.3094688221709;0.4499513;2.036231;0.4824024;1.991878;-0.2394138;0.8422151;-0.2329227;0.8552172;
637949679198742252;1323.798;22;5;3;0.2;1.4;1411;2.12615166548547;-0.6062176;1.15;-0.597757;1.139932;0.4499513;2.036231;0.4824024;1.991878;
637949679218736752;1325.797;22;5;3;0.2;1.4;1999;1.50075037518759;0.6893654;1.621554;0.6606473;1.626079;-0.6062176;1.15;-0.597757;1.139932;
637949679235730576;1327.496;22;5;3;0.2;1.4;1699;1.76574455562095;-0.6893655;1.621553;-0.641819;1.578818;0.6893654;1.621554;0.6606473;1.626079;
637949679297694523;1333.693;22;5;3;0.2;1.4;6197;0.484105212199451;0.6062179;1.15;0.6018382;1.157192;-0.6893655;1.621553;-0.641819;1.578818;
637949679322694640;1336.192;22;5;3;0.2;1.4;2499;1.20048019207683;-0.4499517;2.036231;-0.4069474;1.965513;0.6062179;1.15;0.6018382;1.157192;
637949679331686660;1337.091;22;5;3;0.2;1.4;899;3.33704115684093;0.2394144;0.8422153;0.2507992;0.8174483;-0.4499517;2.036231;-0.4069474;1.965513;
637949679410767805;1345;22;5;4;0.1;1.4;2200;1.81818181818182;-0.2394138;0.8422151;-0.2180392;0.8190235;0;2.2;0.008529503;2.158721;
637949679439854352;1347.909;22;5;4;0.1;1.4;2909;1.37504297009282;0.4499513;2.036231;0.4598508;1.995599;-0.2394138;0.8422151;-0.2180392;0.8190235;
637949679456848176;1349.608;22;5;4;0.1;1.4;1699;2.35432607416127;-0.6062176;1.15;-0.5614635;1.161786;0.4499513;2.036231;0.4598508;1.995599;
637949679548808871;1358.803;22;5;4;0.1;1.4;9195;0.435019032082654;0.6893654;1.621554;0.6636982;1.617065;-0.6062176;1.15;-0.5614635;1.161786;
637949679674857244;1371.409;22;5;4;0.1;1.4;12605;0.317334391114637;-0.6893655;1.621553;-0.6741787;1.611014;0.6893654;1.621554;0.6636982;1.617065;
637949679697847587;1373.708;22;5;4;0.1;1.4;2299;1.73988690735102;0.6062179;1.15;0.5874502;1.182438;-0.6893655;1.621553;-0.6741787;1.611014;
637949679715951662;1375.518;22;5;4;0.1;1.4;1810;2.20994475138122;-0.4499517;2.036231;-0.435801;2.077587;0.6062179;1.15;0.5874502;1.182438;
637949679746938928;1378.616;22;5;4;0.1;1.4;3099;1.29073894804776;0.2394144;0.8422153;0.2112287;0.8609886;-0.4499517;2.036231;-0.435801;2.077587;
637949679775926859;1381.515;22;5;3.5;0.2;2;1100;3.18181818181818;-0.3420197;0.5603072;-0.2736791;0.5103782;0;2.5;0.03397142;2.43505;
637949679861996230;1390.122;22;5;3.5;0.2;2;8607;0.406645753456489;0.6427875;2.266045;0.6530856;2.251635;-0.3420197;0.5603072;-0.2736791;0.5103782;
637949679947065378;1398.63;22;5;3.5;0.2;2;8507;0.411425884565652;-0.8660251;0.9999995;-0.8369877;1.057154;0.6427875;2.266045;0.6530856;2.251635;
637949679978052352;1401.728;22;5;3.5;0.2;2;3099;1.12939657954179;0.9848077;1.673648;0.9276087;1.680151;-0.8660251;0.9999995;-0.8369877;1.057154;
637949680042020325;1408.125;22;5;3.5;0.2;2;6397;0.547131467875567;-0.9848078;1.673648;-1.037461;1.726112;0.9848077;1.673648;0.9276087;1.680151;
637949680070120799;1410.935;22;5;3.5;0.2;2;2810;1.24555160142349;0.8660256;1;0.817525;1.055298;-0.9848078;1.673648;-1.037461;1.726112;
637949680141084140;1418.032;22;5;3.5;0.2;2;7097;0.493166126532338;-0.6427882;2.266044;-0.6119665;2.207;0.8660256;1;0.817525;1.055298;
637949680198170920;1423.74;22;5;3.5;0.2;2;5708;0.613174491941135;0.3420205;0.5603075;0.2999539;0.5673815;-0.6427882;2.266044;-0.6119665;2.207;
637949680240152430;1427.938;22;5;1.5;1.1;2;1599;0.938086303939963;-0.3420197;0.5603072;-0.2837573;0.876357;0;2.5;-0.07652456;2.533282;
637949680293244378;1433.247;22;5;1.5;1.1;2;5309;0.282539084573366;0.6427875;2.266045;0.4140036;2.148523;-0.3420197;0.5603072;-0.2837573;0.876357;
637949680300235952;1433.947;22;5;1.5;1.1;2;700;2.14285714285714;-0.8660251;0.9999995;-0.3874686;1.268037;0.6427875;2.266045;0.4140036;2.148523;
637949680311228427;1435.046;22;5;1.5;1.1;2;1099;1.36487716105551;0.9848077;1.673648;0.6467351;1.678038;-0.8660251;0.9999995;-0.3874686;1.268037;
637949680374202601;1441.343;22;5;1.5;1.1;2;6297;0.238208670795617;-0.9848078;1.673648;-0.5234943;1.880608;0.9848077;1.673648;0.6467351;1.678038;
637949680409290497;1444.852;22;5;1.5;1.1;2;3509;0.42747221430607;0.8660256;1;0.6119914;1.344075;-0.9848078;1.673648;-0.5234943;1.880608;
637949680424293872;1446.352;22;5;1.5;1.1;2;1500;1;-0.6427882;2.266044;-0.5873086;2.298473;0.8660256;1;0.6119914;1.344075;
637949680437276794;1447.651;22;5;1.5;1.1;2;1299;1.15473441108545;0.3420205;0.5603075;0.260538;0.6441399;-0.6427882;2.266044;-0.5873086;2.298473;
637949681068435959;1510.766;22;6;2;0.6;1.8;1599;1.25078173858662;-0.3078177;0.6542765;-0.2980023;0.795742;0;2.4;-0.04969528;2.476435;
637949681074707373;1511.401;22;6;2;0.6;1.8;635;3.1496062992126;0.5785087;2.18944;0.3426304;2.004163;-0.3078177;0.6542765;-0.2980023;0.795742;
637949681085429785;1512.466;22;6;2;0.6;1.8;1064;1.8796992481203;-0.7794226;1.05;-0.6782637;1.059381;0.5785087;2.18944;0.3426304;2.004163;
637949681102423611;1514.165;22;6;2;0.6;1.8;1699;1.17716303708064;0.8863269;1.656283;0.7676487;1.668406;-0.7794226;1.05;-0.6782637;1.059381;
637949681109415183;1514.865;22;6;2;0.6;1.8;700;2.85714285714286;-0.8863271;1.656283;-0.7488096;1.822302;0.8863269;1.656283;0.7676487;1.668406;
637949681121417880;1516.064;22;6;2;0.6;1.8;1200;1.66666666666667;0.779423;1.05;0.5930138;0.9960365;-0.8863271;1.656283;-0.7488096;1.822302;
637949681137511509;1517.674;22;6;2;0.6;1.8;1610;1.24223602484472;-0.5785094;2.18944;-0.4465657;2.139143;0.779423;1.05;0.5930138;0.9960365;
637949681151504655;1519.073;22;6;2;0.6;1.8;1399;1.42959256611866;0.3078185;0.6542768;0.2876236;0.8501047;-0.5785094;2.18944;-0.4465657;2.139143;
637949681220595932;1525.982;22;6;3;0.2;1.4;4609;0.650900412236928;-0.2394138;0.8422151;-0.2144009;0.8525531;0;2.2;-0.01223926;2.20901;
637949681237583406;1527.681;22;6;3;0.2;1.4;1699;1.76574455562095;0.4499513;2.036231;0.4087229;1.98444;-0.2394138;0.8422151;-0.2144009;0.8525531;
637949681261573362;1530.08;22;6;3;0.2;1.4;2399;1.25052105043768;-0.6062176;1.15;-0.5783139;1.161378;0.4499513;2.036231;0.4087229;1.98444;
637949681280557634;1531.979;22;6;3;0.2;1.4;1898;1.58061116965227;0.6893654;1.621554;0.6642169;1.637653;-0.6062176;1.15;-0.5783139;1.161378;
637949681300552134;1533.978;22;6;3;0.2;1.4;1999;1.50075037518759;-0.6893655;1.621553;-0.6915928;1.640619;0.6893654;1.621554;0.6642169;1.637653;
637949681318536183;1535.777;22;6;3;0.2;1.4;1799;1.66759310728182;0.6062179;1.15;0.5706815;1.151625;-0.6893655;1.621553;-0.6915928;1.640619;
637949681334529784;1537.376;22;6;3;0.2;1.4;1599;1.87617260787993;-0.4499517;2.036231;-0.4158759;2.020161;0.6062179;1.15;0.5706815;1.151625;
637949681346642510;1538.587;22;6;3;0.2;1.4;1210;2.47933884297521;0.2394144;0.8422153;0.2023057;0.9163102;-0.4499517;2.036231;-0.4158759;2.020161;
637949681394623309;1543.385;22;6;4.5;0.1;2.2;2699;1.66728417932568;-0.3762217;0.4663379;-0.3352476;0.4594673;0;2.6;0.0158835;2.584172;
637949681468579956;1550.781;22;6;4.5;0.1;2.2;7397;0.608354738407463;0.7070663;2.342649;0.6924281;2.341323;-0.3762217;0.4663379;-0.3352476;0.4594673;
637949681491575131;1553.08;22;6;4.5;0.1;2.2;2299;1.9573727707699;-0.9526277;0.9499994;-0.9373343;0.9135659;0.7070663;2.342649;0.6924281;2.341323;
637949681556769262;1559.599;22;6;4.5;0.1;2.2;6519;0.690289921767142;1.083289;1.691013;1.123087;1.679621;-0.9526277;0.9499994;-0.9373343;0.9135659;
637949681603741400;1564.297;22;6;4.5;0.1;2.2;4698;0.957854406130268;-1.083289;1.691012;-1.099113;1.669553;1.083289;1.691013;1.123087;1.679621;
637949681662834780;1570.206;22;6;4.5;0.1;2.2;5908;0.761679079214624;0.9526281;0.9500003;0.9291024;0.9774535;-1.083289;1.691012;-1.099113;1.669553;
637949681723798502;1576.303;22;6;4.5;0.1;2.2;6097;0.738067902247007;-0.7070671;2.342648;-0.6988316;2.38285;0.9526281;0.9500003;0.9291024;0.9774535;
637949681752785024;1579.201;22;6;4.5;0.1;2.2;2899;1.55225939979303;0.3762226;0.4663382;0.3771313;0.4481997;-0.7070671;2.342648;-0.6988316;2.38285;
637949681823871028;1586.309;22;6;1.5;1.1;2;5109;0.293599530240752;-0.3420197;0.5603072;-0.2582931;0.726418;0;2.5;-0.004879484;2.436321;
637949681835853722;1587.508;22;6;1.5;1.1;2;1199;1.25104253544621;0.6427875;2.266045;0.3943049;2.246677;-0.3420197;0.5603072;-0.2582931;0.726418;
637949681851847321;1589.108;22;6;1.5;1.1;2;1599;0.938086303939963;-0.8660251;0.9999995;-0.7225728;1.081575;0.6427875;2.266045;0.3943049;2.246677;
637949681866860703;1590.608;22;6;1.5;1.1;2;1500;1;0.9848077;1.673648;0.859598;1.785438;-0.8660251;0.9999995;-0.7225728;1.081575;
637949681882864297;1592.206;22;6;1.5;1.1;2;1599;0.938086303939963;-0.9848078;1.673648;-0.8887864;1.723187;0.9848077;1.673648;0.859598;1.785438;
637949681901941137;1594.117;22;6;1.5;1.1;2;1910;0.785340314136126;0.8660256;1;0.6613096;1.187176;-0.9848078;1.673648;-0.8887864;1.723187;
637949681913930271;1595.316;22;6;1.5;1.1;2;1199;1.25104253544621;-0.6427882;2.266044;-0.6412928;2.405475;0.8660256;1;0.6613096;1.187176;
637949681929920761;1596.915;22;6;1.5;1.1;2;1599;0.938086303939963;0.3420205;0.5603075;0.2013256;0.7447324;-0.6427882;2.266044;-0.6412928;2.405475;
637949682036980693;1607.621;22;6;4;0.1;1.4;3010;1.32890365448505;-0.2394138;0.8422151;-0.2322121;0.8652664;0;2.2;-0.01608999;2.179674;
637949682064966992;1610.42;22;6;4;0.1;1.4;2799;1.4290818149339;0.4499513;2.036231;0.4410382;2.032446;-0.2394138;0.8422151;-0.2322121;0.8652664;
637949682090982850;1613.021;22;6;4;0.1;1.4;2601;1.53787004998078;-0.6062176;1.15;-0.5912933;1.107394;0.4499513;2.036231;0.4410382;2.032446;
637949682112947798;1615.218;22;6;4;0.1;1.4;2197;1.82066454255803;0.6893654;1.621554;0.7107823;1.629082;-0.6062176;1.15;-0.5912933;1.107394;
637949682143044565;1618.227;22;6;4;0.1;1.4;3010;1.32890365448505;-0.6893655;1.621553;-0.6748244;1.591686;0.6893654;1.621554;0.7107823;1.629082;
637949682258100463;1629.733;22;6;4;0.1;1.4;11506;0.347644707109334;0.6062179;1.15;0.5849948;1.147355;-0.6893655;1.621553;-0.6748244;1.591686;
637949682284087453;1632.332;22;6;4;0.1;1.4;2599;1.5390534821085;-0.4499517;2.036231;-0.4602688;1.992509;0.6062179;1.15;0.5849948;1.147355;
637949682300078482;1633.931;22;6;4;0.1;1.4;1599;2.50156347717323;0.2394144;0.8422153;0.2232764;0.8854007;-0.4499517;2.036231;-0.4602688;1.992509;
637949682356170796;1639.54;22;6;3.5;0.2;2;2299;1.52240104393214;-0.3420197;0.5603072;-0.3491521;0.5294764;0;2.5;0.01084056;2.438963;
637949682376154472;1641.539;22;6;3.5;0.2;2;1999;1.75087543771886;0.6427875;2.266045;0.6015995;2.255996;-0.3420197;0.5603072;-0.3491521;0.5294764;
637949682446320267;1648.547;22;6;3.5;0.2;2;7008;0.499429223744292;-0.8660251;0.9999995;-0.7922693;1.030988;0.6427875;2.266045;0.6015995;2.255996;
637949682467224970;1650.646;22;6;3.5;0.2;2;2099;1.66746069556932;0.9848077;1.673648;0.982965;1.627609;-0.8660251;0.9999995;-0.7922693;1.030988;
637949682487329496;1652.656;22;6;3.5;0.2;2;2010;1.74129353233831;-0.9848078;1.673648;-0.9740701;1.666946;0.9848077;1.673648;0.982965;1.627609;
637949682508324222;1654.755;22;6;3.5;0.2;2;2099;1.66746069556932;0.8660256;1;0.8415739;1.065653;-0.9848078;1.673648;-0.9740701;1.666946;
637949682523307599;1656.254;22;6;3.5;0.2;2;1499;2.33488992661775;-0.6427882;2.266044;-0.6090615;2.219328;0.8660256;1;0.8415739;1.065653;
637949682542301868;1658.153;22;6;3.5;0.2;2;1899;1.84307530279094;0.3420205;0.5603075;0.3350246;0.6105396;-0.6427882;2.266044;-0.6090615;2.219328;
637949682601385165;1664.061;22;6;2.5;0.3;1.4;2998;0.833889259506338;-0.2394138;0.8422151;-0.2543411;0.9103185;0;2.2;-0.01464263;2.158207;
637949682620379441;1665.961;22;6;2.5;0.3;1.4;1900;1.31578947368421;0.4499513;2.036231;0.3504863;2.088362;-0.2394138;0.8422151;-0.2543411;0.9103185;
637949682643364615;1668.26;22;6;2.5;0.3;1.4;2299;1.08742931709439;-0.6062176;1.15;-0.5818227;1.213521;0.4499513;2.036231;0.3504863;2.088362;
637949682665355915;1670.459;22;6;2.5;0.3;1.4;2199;1.1368804001819;0.6893654;1.621554;0.6440251;1.604801;-0.6062176;1.15;-0.5818227;1.213521;
637949682679359066;1671.858;22;6;2.5;0.3;1.4;1400;1.78571428571429;-0.6893655;1.621553;-0.7002273;1.574822;0.6893654;1.621554;0.6440251;1.604801;
637949682700453360;1673.968;22;6;2.5;0.3;1.4;2110;1.18483412322275;0.6062179;1.15;0.5697622;1.152607;-0.6893655;1.621553;-0.7002273;1.574822;
637949682720446014;1675.967;22;6;2.5;0.3;1.4;1999;1.25062531265633;-0.4499517;2.036231;-0.4744532;1.965826;0.6062179;1.15;0.5697622;1.152607;
637949682750812852;1679.012;22;6;2.5;0.3;1.4;3044;0.821287779237845;0.2394144;0.8422153;0.1768824;0.9769843;-0.4499517;2.036231;-0.4744532;1.965826;
637949683432894953;1747.213;22;7;2;0.6;1.8;2011;0.994530084535057;-0.3078177;0.6542765;-0.2552195;0.7524986;0;2.4;-0.1032413;2.369124;
637949683445887873;1748.511;22;7;2;0.6;1.8;1299;1.53964588144727;0.5785087;2.18944;0.4251707;2.107482;-0.3078177;0.6542765;-0.2552195;0.7524986;
637949683456880350;1749.611;22;7;2;0.6;1.8;1099;1.81983621474067;-0.7794226;1.05;-0.68741;1.100223;0.5785087;2.18944;0.4251707;2.107482;
637949683470873501;1751.01;22;7;2;0.6;1.8;1399;1.42959256611866;0.8863269;1.656283;0.7340221;1.630159;-0.7794226;1.05;-0.68741;1.100223;
637949683482876203;1752.21;22;7;2;0.6;1.8;1200;1.66666666666667;-0.8863271;1.656283;-0.783239;1.632886;0.8863269;1.656283;0.7340221;1.630159;
637949683496859348;1753.609;22;7;2;0.6;1.8;1399;1.42959256611866;0.779423;1.05;0.7659352;1.0967;-0.8863271;1.656283;-0.783239;1.632886;
637949683511852723;1755.108;22;7;2;0.6;1.8;1500;1.33333333333333;-0.5785094;2.18944;-0.492686;2.116303;0.779423;1.05;0.7659352;1.0967;
637949683530846999;1757.007;22;7;2;0.6;1.8;1899;1.05318588730911;0.3078185;0.6542768;0.204478;0.851126;-0.5785094;2.18944;-0.492686;2.116303;
637949683562834198;1760.206;22;7;2.5;0.3;1.4;1699;1.47145379635079;-0.2394138;0.8422151;-0.2239395;0.8402652;0;2.2;0.01076223;2.104005;
637949683570145844;1760.945;22;7;2.5;0.3;1.4;739;3.382949932341;0.4499513;2.036231;0.3026642;2.012598;-0.2394138;0.8422151;-0.2239395;0.8402652;
637949683588830045;1762.806;22;7;2.5;0.3;1.4;1861;1.34336378291241;-0.6062176;1.15;-0.5059179;1.166889;0.4499513;2.036231;0.3026642;2.012598;
637949683607924348;1764.715;22;7;2.5;0.3;1.4;1909;1.30958617077004;0.6893654;1.621554;0.6071312;1.616826;-0.6062176;1.15;-0.5059179;1.166889;
637949683624908171;1766.414;22;7;2.5;0.3;1.4;1699;1.47145379635079;-0.6893655;1.621553;-0.6027924;1.569739;0.6893654;1.621554;0.6071312;1.616826;
637949683634910421;1767.414;22;7;2.5;0.3;1.4;1000;2.5;0.6062179;1.15;0.5751683;1.151356;-0.6893655;1.621553;-0.6027924;1.569739;
637949683643902445;1768.313;22;7;2.5;0.3;1.4;899;2.78086763070078;-0.4499517;2.036231;-0.3850915;2.080797;0.6062179;1.15;0.5751683;1.151356;
637949683655895149;1769.513;22;7;2.5;0.3;1.4;1200;2.08333333333333;0.2394144;0.8422153;0.2138137;0.8561254;-0.4499517;2.036231;-0.3850915;2.080797;
637949683691883246;1773.111;22;7;1.5;1.1;2;1400;1.07142857142857;-0.3420197;0.5603072;-0.213397;0.5756603;0;2.5;-0.03594659;2.503192;
637949683708872122;1774.81;22;7;1.5;1.1;2;1699;0.882872277810477;0.6427875;2.266045;0.3508271;2.181573;-0.3420197;0.5603072;-0.213397;0.5756603;
637949683717869402;1775.71;22;7;1.5;1.1;2;900;1.66666666666667;-0.8660251;0.9999995;-0.8721494;1.112075;0.6427875;2.266045;0.3508271;2.181573;
637949683729872103;1776.91;22;7;1.5;1.1;2;1201;1.24895920066611;0.9848077;1.673648;0.6312732;1.679586;-0.8660251;0.9999995;-0.8721494;1.112075;
637949683755957972;1779.519;22;7;1.5;1.1;2;2609;0.574932924492143;-0.9848078;1.673648;-0.8017871;1.805641;0.9848077;1.673648;0.6312732;1.679586;
637949683767956677;1780.718;22;7;1.5;1.1;2;1199;1.25104253544621;0.8660256;1;0.7296833;1.111015;-0.9848078;1.673648;-0.8017871;1.805641;
637949683782950076;1782.218;22;7;1.5;1.1;2;1499;1.00066711140761;-0.6427882;2.266044;-0.4496694;2.266877;0.8660256;1;0.7296833;1.111015;
637949683797943449;1783.717;22;7;1.5;1.1;2;1499;1.00066711140761;0.3420205;0.5603075;0.2905813;0.6479744;-0.6427882;2.266044;-0.4496694;2.266877;
637949683859027205;1789.825;22;7;3;0.2;1.4;2010;1.49253731343284;-0.2394138;0.8422151;-0.2076392;0.8298329;0;2.2;-0.05094897;2.114117;
637949683882012373;1792.124;22;7;3;0.2;1.4;2299;1.30491518051327;0.4499513;2.036231;0.4659012;1.995318;-0.2394138;0.8422151;-0.2076392;0.8298329;
637949683903007098;1794.223;22;7;3;0.2;1.4;2099;1.4292520247737;-0.6062176;1.15;-0.5562198;1.137867;0.4499513;2.036231;0.4659012;1.995318;
637949683923991825;1796.323;22;7;3;0.2;1.4;2099;1.4292520247737;0.6893654;1.621554;0.6198138;1.595547;-0.6062176;1.15;-0.5562198;1.137867;
637949683948987442;1798.821;22;7;3;0.2;1.4;2499;1.20048019207683;-0.6893655;1.621553;-0.65553;1.593403;0.6893654;1.621554;0.6198138;1.595547;
637949683965971269;1800.521;22;7;3;0.2;1.4;1699;1.76574455562095;0.6062179;1.15;0.5901635;1.129715;-0.6893655;1.621553;-0.65553;1.593403;
637949683986085799;1802.531;22;7;3;0.2;1.4;2010;1.49253731343284;-0.4499517;2.036231;-0.4392436;1.958338;0.6062179;1.15;0.5901635;1.129715;
637949684004069848;1804.33;22;7;3;0.2;1.4;1799;1.66759310728182;0.2394144;0.8422153;0.192804;0.8063976;-0.4499517;2.036231;-0.4392436;1.958338;
637949684118124115;1815.735;22;7;4.5;0.1;2.2;2699;1.66728417932568;-0.3762217;0.4663379;-0.3698201;0.4997057;0;2.6;-0.01214581;2.587619;
637949684143128241;1818.235;22;7;4.5;0.1;2.2;2500;1.8;0.7070663;2.342649;0.6700973;2.326112;-0.3762217;0.4663379;-0.3698201;0.4997057;
637949684154440785;1819.374;22;7;4.5;0.1;2.2;1139;3.95083406496927;-0.9526277;0.9499994;-0.9889634;0.9343556;0.7070663;2.342649;0.6700973;2.326112;
637949684167103634;1820.633;22;7;4.5;0.1;2.2;1259;3.57426528991263;1.083289;1.691013;1.089704;1.678377;-0.9526277;0.9499994;-0.9889634;0.9343556;
637949684196200182;1823.543;22;7;4.5;0.1;2.2;2910;1.54639175257732;-1.083289;1.691012;-1.075033;1.705279;1.083289;1.691013;1.089704;1.678377;
637949684231188062;1827.042;22;7;4.5;0.1;2.2;3498;1.28644939965695;0.9526281;0.9500003;0.9271055;0.9841197;-1.083289;1.691012;-1.075033;1.705279;
637949684298153129;1833.739;22;7;4.5;0.1;2.2;6697;0.671942660892937;-0.7070671;2.342648;-0.6981162;2.376414;0.9526281;0.9500003;0.9271055;0.9841197;
637949684319147857;1835.837;22;7;4.5;0.1;2.2;2099;2.14387803716055;0.3762226;0.4663382;0.3563887;0.4941944;-0.7070671;2.342648;-0.6981162;2.376414;
637949684352245305;1839.147;22;7;3.5;0.2;2;1710;2.04678362573099;-0.3420197;0.5603072;-0.3161364;0.6065733;0;2.5;-0.001783639;2.461828;
637949684362237549;1840.146;22;7;3.5;0.2;2;999;3.5035035035035;0.6427875;2.266045;0.5957934;2.290696;-0.3420197;0.5603072;-0.3161364;0.6065733;
637949684371229578;1841.046;22;7;3.5;0.2;2;900;3.88888888888889;-0.8660251;0.9999995;-0.9099609;1.034737;0.6427875;2.266045;0.5957934;2.290696;
637949684387223180;1842.645;22;7;3.5;0.2;2;1599;2.18886804252658;0.9848077;1.673648;0.9502073;1.614798;-0.8660251;0.9999995;-0.9099609;1.034737;
637949684428206231;1846.743;22;7;3.5;0.2;2;4098;0.854075158613958;-0.9848078;1.673648;-0.9737895;1.631914;0.9848077;1.673648;0.9502073;1.614798;
637949684448200091;1848.742;22;7;3.5;0.2;2;1999;1.75087543771886;0.8660256;1;0.8278857;1.01201;-0.9848078;1.673648;-0.9737895;1.631914;
637949684461196756;1850.042;22;7;3.5;0.2;2;1300;2.69230769230769;-0.6427882;2.266044;-0.5813172;2.230964;0.8660256;1;0.8278857;1.01201;
637949684480296054;1851.952;22;7;3.5;0.2;2;1910;1.83246073298429;0.3420205;0.5603075;0.3329743;0.6191827;-0.6427882;2.266044;-0.5813172;2.230964;
637949684513283490;1855.251;22;7;4;0.1;1.4;1600;2.5;-0.2394138;0.8422151;-0.2162453;0.8288502;0;2.2;0.01810938;2.168019;
637949684526276409;1856.55;22;7;4;0.1;1.4;1300;3.07692307692308;0.4499513;2.036231;0.456133;1.988092;-0.2394138;0.8422151;-0.2162453;0.8288502;
637949684544260455;1858.349;22;7;4;0.1;1.4;1799;2.22345747637576;-0.6062176;1.15;-0.579317;1.185498;0.4499513;2.036231;0.456133;1.988092;
637949684571246531;1861.048;22;7;4;0.1;1.4;2698;1.48257968865827;0.6893654;1.621554;0.6548363;1.657131;-0.6062176;1.15;-0.579317;1.185498;
637949684613336002;1865.257;22;7;4;0.1;1.4;4209;0.950344499881207;-0.6893655;1.621553;-0.6688759;1.587923;0.6893654;1.621554;0.6548363;1.657131;
637949684637331402;1867.656;22;7;4;0.1;1.4;2399;1.66736140058358;0.6062179;1.15;0.6142561;1.140088;-0.6893655;1.621553;-0.6688759;1.587923;
637949684716559237;1875.586;22;7;4;0.1;1.4;7930;0.504413619167718;-0.4499517;2.036231;-0.4643566;1.989521;0.6062179;1.15;0.6142561;1.140088;
637949684739389425;1877.862;22;7;4;0.1;1.4;2276;1.75746924428822;0.2394144;0.8422153;0.215735;0.8678275;-0.4499517;2.036231;-0.4643566;1.989521;
