637949704784670452;102.8832;23;1;2.5;0.3;1.4;2799;0.893176134333691;-0.2394138;0.8422151;-0.2220846;0.8817968;0;2.2;0.03295442;2.11562;
637949704838752617;108.2919;23;1;2.5;0.3;1.4;5409;0.462192641893141;0.4499513;2.036231;0.4214709;1.977717;-0.2394138;0.8422151;-0.2220846;0.8817968;
637949704858737120;110.291;23;1;2.5;0.3;1.4;1999;1.25062531265633;-0.6062176;1.15;-0.5541979;1.169479;0.4499513;2.036231;0.4214709;1.977717;
637949704870729823;111.4902;23;1;2.5;0.3;1.4;1199;2.08507089241034;0.6893654;1.621554;0.6677377;1.609087;-0.6062176;1.15;-0.5541979;1.169479;
637949704883732745;112.7898;23;1;2.5;0.3;1.4;1300;1.92307692307692;-0.6893655;1.621553;-0.5785866;1.581622;0.6893654;1.621554;0.6677377;1.609087;
637949704897727114;114.1894;23;1;2.5;0.3;1.4;1400;1.78571428571429;0.6062179;1.15;0.5128668;1.134623;-0.6893655;1.621553;-0.5785866;1.581622;
637949704909719813;115.3885;23;1;2.5;0.3;1.4;1199;2.08507089241034;-0.4499517;2.036231;-0.4519773;2.013071;0.6062179;1.15;0.5128668;1.134623;
637949704957689578;120.1864;23;1;2.5;0.3;1.4;4798;0.521050437682368;0.2394144;0.8422153;0.1856907;0.8494071;-0.4499517;2.036231;-0.4519773;2.013071;
637949705000765393;124.4953;23;1;4.5;0.1;2.2;2099;2.14387803716055;-0.3762217;0.4663379;-0.3935575;0.4829162;0;2.6;0.01455058;2.58344;
637949705015758767;125.9945;23;1;4.5;0.1;2.2;1499;3.00200133422282;0.7070663;2.342649;0.6853824;2.311448;-0.3762217;0.4663379;-0.3935575;0.4829162;
637949705052747094;129.6933;23;1;4.5;0.1;2.2;3699;1.21654501216545;-0.9526277;0.9499994;-0.9292548;0.9482622;0.7070663;2.342649;0.6853824;2.311448;
637949705102838367;134.7018;23;1;4.5;0.1;2.2;5008;0.898562300319489;1.083289;1.691013;1.063788;1.667931;-0.9526277;0.9499994;-0.9292548;0.9482622;
637949705144817815;138.8998;23;1;4.5;0.1;2.2;4198;1.07193901858028;-1.083289;1.691012;-1.048246;1.698944;1.083289;1.691013;1.063788;1.667931;
637949705197899764;144.2084;23;1;4.5;0.1;2.2;5309;0.847617253720098;0.9526281;0.9500003;0.9571646;0.9574549;-1.083289;1.691012;-1.048246;1.698944;
637949705222895390;146.7079;23;1;4.5;0.1;2.2;2499;1.80072028811525;-0.7070671;2.342648;-0.6846184;2.323636;0.9526281;0.9500003;0.9571646;0.9574549;
637949705244880339;148.9063;23;1;4.5;0.1;2.2;2198;2.04731574158326;0.3762226;0.4663382;0.4166642;0.4722663;-0.7070671;2.342648;-0.6846184;2.323636;
637949705339947539;158.4129;23;1;2;0.6;1.8;6308;0.317057704502219;-0.3078177;0.6542765;-0.2882495;0.785219;0;2.4;-0.02698164;2.274211;
637949705356941367;160.112;23;1;2;0.6;1.8;1699;1.17716303708064;0.5785087;2.18944;0.4815968;2.099732;-0.3078177;0.6542765;-0.2882495;0.785219;
637949705373935194;161.8117;23;1;2;0.6;1.8;1700;1.17647058823529;-0.7794226;1.05;-0.6944081;1.14808;0.5785087;2.18944;0.4815968;2.099732;
637949705410913518;165.5097;23;1;2;0.6;1.8;3698;0.540832882639265;0.8863269;1.656283;0.7767559;1.652065;-0.7794226;1.05;-0.6944081;1.14808;
637949705443905388;168.8084;23;1;2;0.6;1.8;3299;0.606244316459533;-0.8863271;1.656283;-0.7022997;1.608603;0.8863269;1.656283;0.7767559;1.652065;
637949705453005383;169.7189;23;1;2;0.6;1.8;911;2.1953896816685;0.779423;1.05;0.5617321;1.254665;-0.8863271;1.656283;-0.7022997;1.608603;
637949705484991417;172.9173;23;1;2;0.6;1.8;3198;0.625390869293308;-0.5785094;2.18944;-0.4975657;2.02564;0.779423;1.05;0.5617321;1.254665;
637949705498984568;174.3166;23;1;2;0.6;1.8;1399;1.42959256611866;0.3078185;0.6542768;0.2654577;0.8155223;-0.5785094;2.18944;-0.4975657;2.02564;
637949705531971992;177.6152;23;1;4;0.1;1.4;1499;2.66844563042028;-0.2394138;0.8422151;-0.2423723;0.8424033;0;2.2;0.009058801;2.183848;
637949705554957165;179.9141;23;1;4;0.1;1.4;2299;1.73988690735102;0.4499513;2.036231;0.4176513;2.023;-0.2394138;0.8422151;-0.2423723;0.8424033;
637949705580132827;182.4242;23;1;4;0.1;1.4;2510;1.59362549800797;-0.6062176;1.15;-0.5864785;1.136585;0.4499513;2.036231;0.4176513;2.023;
637949705594055966;183.8236;23;1;4;0.1;1.4;1399;2.85918513223731;0.6893654;1.621554;0.6615214;1.593428;-0.6062176;1.15;-0.5864785;1.136585;
637949705634024963;187.8214;23;1;4;0.1;1.4;3998;1.00050025012506;-0.6893655;1.621553;-0.6702914;1.624942;0.6893654;1.621554;0.6615214;1.593428;
637949705654029465;189.8208;23;1;4;0.1;1.4;1999;2.00100050025012;0.6062179;1.15;0.6065879;1.178856;-0.6893655;1.621553;-0.6702914;1.624942;
637949705689007336;193.3193;23;1;4;0.1;1.4;3498;1.14351057747284;-0.4499517;2.036231;-0.442399;2.018476;0.6062179;1.15;0.6065879;1.178856;
637949705707001389;195.1181;23;1;4;0.1;1.4;1799;2.22345747637576;0.2394144;0.8422153;0.2160671;0.8758968;-0.4499517;2.036231;-0.442399;2.018476;
637949705738098386;198.2279;23;1;3;0.2;1.4;1710;1.75438596491228;-0.2394138;0.8422151;-0.2443419;0.9047705;0;2.2;-0.003313302;2.209823;
637949705767079695;201.1267;23;1;3;0.2;1.4;2899;1.03483959986202;0.4499513;2.036231;0.4329902;2.024816;-0.2394138;0.8422151;-0.2443419;0.9047705;
637949705792071022;203.6257;23;1;3;0.2;1.4;2499;1.20048019207683;-0.6062176;1.15;-0.5684294;1.120118;0.4499513;2.036231;0.4329902;2.024816;
637949705812175547;205.6358;23;1;3;0.2;1.4;2010;1.49253731343284;0.6893654;1.621554;0.6311565;1.623123;-0.6062176;1.15;-0.5684294;1.120118;
637949705829158136;207.3347;23;1;3;0.2;1.4;1699;1.76574455562095;-0.6893655;1.621553;-0.6851043;1.601588;0.6893654;1.621554;0.6311565;1.623123;
637949705842158400;208.6344;23;1;3;0.2;1.4;1300;2.30769230769231;0.6062179;1.15;0.5621887;1.189288;-0.6893655;1.621553;-0.6851043;1.601588;
637949705885138078;212.932;23;1;3;0.2;1.4;4298;0.697999069334574;-0.4499517;2.036231;-0.4245973;1.986832;0.6062179;1.15;0.5621887;1.189288;
637949705902131904;214.6314;23;1;3;0.2;1.4;1699;1.76574455562095;0.2394144;0.8422153;0.2217727;0.8653986;-0.4499517;2.036231;-0.4245973;1.986832;
637949705946111806;219.0297;23;1;3.5;0.2;2;3099;1.12939657954179;-0.3420197;0.5603072;-0.3296658;0.5536194;0;2.5;0.0006281786;2.412096;
637949705966216330;221.0396;23;1;3.5;0.2;2;2010;1.74129353233831;0.6427875;2.266045;0.6282027;2.255337;-0.3420197;0.5603072;-0.3296658;0.5536194;
637949705994192627;223.8381;23;1;3.5;0.2;2;2798;1.25089349535382;-0.8660251;0.9999995;-0.8256606;1.0122;0.6427875;2.266045;0.6282027;2.255337;
637949706025189603;226.9368;23;1;3.5;0.2;2;3099;1.12939657954179;0.9848077;1.673648;0.9339342;1.667156;-0.8660251;0.9999995;-0.8256606;1.0122;
637949706038182527;228.2363;23;1;3.5;0.2;2;1300;2.69230769230769;-0.9848078;1.673648;-0.8890496;1.663243;0.9848077;1.673648;0.9339342;1.667156;
637949706065168601;230.9353;23;1;3.5;0.2;2;2699;1.29677658391997;0.8660256;1;0.8242659;1.006371;-0.9848078;1.673648;-0.8890496;1.663243;
637949706108338326;235.2439;23;1;3.5;0.2;2;4309;0.812253423067997;-0.6427882;2.266044;-0.6263012;2.235482;0.8660256;1;0.8242659;1.006371;
637949706175222369;241.9409;23;1;3.5;0.2;2;6697;0.522622069583396;0.3420205;0.5603075;0.3189437;0.5787098;-0.6427882;2.266044;-0.6263012;2.235482;
637949706209206171;245.3394;23;1;1.5;1.1;2;1799;0.833796553640912;-0.3420197;0.5603072;-0.2589102;0.8320665;0;2.5;-0.03720212;2.346424;
637949706251297444;249.5483;23;1;1.5;1.1;2;4209;0.356379187455453;0.6427875;2.266045;0.5213404;2.116941;-0.3420197;0.5603072;-0.2589102;0.8320665;
637949706275292847;251.9474;23;1;1.5;1.1;2;2399;0.625260525218841;-0.8660251;0.9999995;-0.7040429;1.153884;0.6427875;2.266045;0.5213404;2.116941;
637949706288395796;253.2582;23;1;1.5;1.1;2;1311;1.1441647597254;0.9848077;1.673648;0.7654633;1.643837;-0.8660251;0.9999995;-0.7040429;1.153884;
637949706315381870;255.9566;23;1;1.5;1.1;2;2698;0.555967383246849;-0.9848078;1.673648;-0.733388;1.632846;0.9848077;1.673648;0.7654633;1.643837;
637949706381357669;262.5539;23;1;1.5;1.1;2;6597;0.22737608003638;0.8660256;1;0.6481054;1.112767;-0.9848078;1.673648;-0.733388;1.632846;
637949706413334898;265.752;23;1;1.5;1.1;2;3198;0.469043151969981;-0.6427882;2.266044;-0.5196866;1.98997;0.8660256;1;0.6481054;1.112767;
637949706426330201;267.0516;23;1;1.5;1.1;2;1300;1.15384615384615;0.3420205;0.5603075;0.2944006;0.8983265;-0.6427882;2.266044;-0.5196866;1.98997;
637949707859780468;410.3959;23;2;4.5;0.1;2.2;2599;1.73143516737207;-0.3762217;0.4663379;-0.3563865;0.4909695;0;2.6;-0.006320578;2.558462;
637949707895758570;413.9942;23;2;4.5;0.1;2.2;3598;1.25069483046137;0.7070663;2.342649;0.7036573;2.334169;-0.3762217;0.4663379;-0.3563865;0.4909695;
637949707923859779;416.8042;23;2;4.5;0.1;2.2;2810;1.60142348754448;-0.9526277;0.9499994;-0.9392236;0.963816;0.7070663;2.342649;0.7036573;2.334169;
637949708012929076;425.7112;23;2;4.5;0.1;2.2;8907;0.50522061300101;1.083289;1.691013;1.075071;1.709744;-0.9526277;0.9499994;-0.9392236;0.963816;
637949708052918070;429.7101;23;2;4.5;0.1;2.2;3999;1.12528132033008;-1.083289;1.691012;-1.069912;1.675624;1.083289;1.691013;1.075071;1.709744;
637949708067901449;431.2087;23;2;4.5;0.1;2.2;1499;3.00200133422282;0.9526281;0.9500003;0.9234297;0.9677348;-1.083289;1.691012;-1.069912;1.675624;
637949708120873369;436.5059;23;2;4.5;0.1;2.2;5297;0.84953747404191;-0.7070671;2.342648;-0.7157775;2.311243;0.9526281;0.9500003;0.9234297;0.9677348;
637949708150860121;439.5048;23;2;4.5;0.1;2.2;2999;1.50050016672224;0.3762226;0.4663382;0.3832722;0.4989893;-0.7070671;2.342648;-0.7157775;2.311243;
637949708189958923;443.414;23;2;1.5;1.1;2;1999;0.750375187593797;-0.3420197;0.5603072;-0.3707253;0.7804072;0;2.5;-0.03702905;2.382546;
637949708209943418;445.4131;23;2;1.5;1.1;2;1999;0.750375187593797;0.6427875;2.266045;0.5224687;2.139745;-0.3420197;0.5603072;-0.3707253;0.7804072;
637949708228947696;447.3126;23;2;1.5;1.1;2;1900;0.789473684210526;-0.8660251;0.9999995;-0.6892147;1.208141;0.6427875;2.266045;0.5224687;2.139745;
637949708257924220;450.2108;23;2;1.5;1.1;2;2898;0.5175983436853;0.9848077;1.673648;0.7658141;1.586803;-0.8660251;0.9999995;-0.6892147;1.208141;
637949708278912406;452.3097;23;2;1.5;1.1;2;2099;0.714626012386851;-0.9848078;1.673648;-0.7118468;1.656793;0.9848077;1.673648;0.7658141;1.586803;
637949708302917811;454.71;23;2;1.5;1.1;2;2400;0.625;0.8660256;1;0.6911662;1.150484;-0.9848078;1.673648;-0.7118468;1.656793;
637949708344995034;458.9181;23;2;1.5;1.1;2;4208;0.356463878326996;-0.6427882;2.266044;-0.6007972;2.093195;0.8660256;1;0.6911662;1.150484;
637949708362989084;460.7171;23;2;1.5;1.1;2;1799;0.833796553640912;0.3420205;0.5603075;0.2465414;0.7989252;-0.6427882;2.266044;-0.6007972;2.093195;
637949708394976285;463.9154;23;2;2.5;0.3;1.4;1499;1.66777851901268;-0.2394138;0.8422151;-0.2534403;0.8640826;0;2.2;0.02922494;2.124202;
637949708408969434;465.315;23;2;2.5;0.3;1.4;1400;1.78571428571429;0.4499513;2.036231;0.412;1.976668;-0.2394138;0.8422151;-0.2534403;0.8640826;
637949708421962359;466.6143;23;2;2.5;0.3;1.4;1299;1.92455735180908;-0.6062176;1.15;-0.5982692;1.126683;0.4499513;2.036231;0.412;1.976668;
637949708444947531;468.9135;23;2;2.5;0.3;1.4;2299;1.08742931709439;0.6893654;1.621554;0.5827231;1.616609;-0.6062176;1.15;-0.5982692;1.126683;
637949708464051831;470.8236;23;2;2.5;0.3;1.4;1910;1.30890052356021;-0.6893655;1.621553;-0.7167871;1.600107;0.6893654;1.621554;0.5827231;1.616609;
637949708483046107;472.7228;23;2;2.5;0.3;1.4;1899;1.31648235913639;0.6062179;1.15;0.5271046;1.152303;-0.6893655;1.621553;-0.7167871;1.600107;
637949708495038806;473.922;23;2;2.5;0.3;1.4;1199;2.08507089241034;-0.4499517;2.036231;-0.4159671;1.953955;0.6062179;1.15;0.5271046;1.152303;
637949708508031735;475.2216;23;2;2.5;0.3;1.4;1300;1.92307692307692;0.2394144;0.8422153;0.2280585;0.8476874;-0.4499517;2.036231;-0.4159671;1.953955;
637949708540999150;478.5179;23;2;3;0.2;1.4;1397;2.14745884037223;-0.2394138;0.8422151;-0.2264511;0.9229801;0;2.2;0.01870005;2.126721;
637949708554002080;479.8191;23;2;3;0.2;1.4;1301;2.30591852421214;0.4499513;2.036231;0.4492903;2.007465;-0.2394138;0.8422151;-0.2264511;0.9229801;
637949708578997703;482.3182;23;2;3;0.2;1.4;2499;1.20048019207683;-0.6062176;1.15;-0.5820035;1.191733;0.4499513;2.036231;0.4492903;2.007465;
637949708591000405;483.5179;23;2;3;0.2;1.4;1200;2.5;0.6893654;1.621554;0.7522312;1.618467;-0.6062176;1.15;-0.5820035;1.191733;
637949708601982877;484.617;23;2;3;0.2;1.4;1099;2.72975432211101;-0.6893655;1.621553;-0.6316646;1.610982;0.6893654;1.621554;0.7522312;1.618467;
637949708612980399;485.7165;23;2;3;0.2;1.4;1099;2.72975432211101;0.6062179;1.15;0.6345878;1.118205;-0.6893655;1.621553;-0.6316646;1.610982;
637949708635085376;487.9266;23;2;3;0.2;1.4;2210;1.35746606334842;-0.4499517;2.036231;-0.440211;1.981797;0.6062179;1.15;0.6345878;1.118205;
637949708650076914;489.4263;23;2;3;0.2;1.4;1500;2;0.2394144;0.8422153;0.2070025;0.8927705;-0.4499517;2.036231;-0.440211;1.981797;
637949708688166343;493.2354;23;2;3.5;0.2;2;1810;1.93370165745856;-0.3420197;0.5603072;-0.3521858;0.5999335;0;2.5;0.01396018;2.450155;
637949708703159720;494.7346;23;2;3.5;0.2;2;1499;2.33488992661775;0.6427875;2.266045;0.5919212;2.189896;-0.3420197;0.5603072;-0.3521858;0.5999335;
637949708721153770;496.5337;23;2;3.5;0.2;2;1799;1.94552529182879;-0.8660251;0.9999995;-0.8436103;1.05067;0.6427875;2.266045;0.5919212;2.189896;
637949708745139172;498.9325;23;2;3.5;0.2;2;2399;1.45894122551063;0.9848077;1.673648;0.9459058;1.657374;-0.8660251;0.9999995;-0.8436103;1.05067;
637949708762132982;500.6317;23;2;3.5;0.2;2;1699;2.06003531489111;-0.9848078;1.673648;-0.9618424;1.692851;0.9848077;1.673648;0.9459058;1.657374;
637949708782127493;502.6309;23;2;3.5;0.2;2;1999;1.75087543771886;0.8660256;1;0.7817957;1.031129;-0.9848078;1.673648;-0.9618424;1.692851;
637949708803122214;504.73;23;2;3.5;0.2;2;2099;1.66746069556932;-0.6427882;2.266044;-0.613258;2.204122;0.8660256;1;0.7817957;1.031129;
637949708821106263;506.5291;23;2;3.5;0.2;2;1799;1.94552529182879;0.3420205;0.5603075;0.2761094;0.5901346;-0.6427882;2.266044;-0.613258;2.204122;
637949708855204801;509.9388;23;2;4;0.1;1.4;1400;2.85714285714286;-0.2394138;0.8422151;-0.2381521;0.8724332;0;2.2;-0.01475615;2.171586;
637949708883193254;512.7374;23;2;4;0.1;1.4;2799;1.4290818149339;0.4499513;2.036231;0.4443378;2.03527;-0.2394138;0.8422151;-0.2381521;0.8724332;
637949708907178658;515.1364;23;2;4;0.1;1.4;2399;1.66736140058358;-0.6062176;1.15;-0.5910019;1.172399;0.4499513;2.036231;0.4443378;2.03527;
637949708929163605;517.3351;23;2;4;0.1;1.4;2199;1.81900864029104;0.6893654;1.621554;0.6641041;1.619899;-0.6062176;1.15;-0.5910019;1.172399;
637949708986256455;523.0435;23;2;4;0.1;1.4;5708;0.700770847932726;-0.6893655;1.621553;-0.6844928;1.608315;0.6893654;1.621554;0.6641041;1.619899;
637949709040228608;528.4412;23;2;4;0.1;1.4;5398;0.741015190811412;0.6062179;1.15;0.5935934;1.15973;-0.6893655;1.621553;-0.6844928;1.608315;
637949709070215351;531.4399;23;2;4;0.1;1.4;2999;1.33377792597533;-0.4499517;2.036231;-0.4319;2.021127;0.6062179;1.15;0.5935934;1.15973;
637949709086208951;533.0391;23;2;4;0.1;1.4;1599;2.50156347717323;0.2394144;0.8422153;0.2392203;0.8704652;-0.4499517;2.036231;-0.4319;2.021127;
637949709119186373;536.3374;23;2;2;0.6;1.8;1599;1.25078173858662;-0.3078177;0.6542765;-0.2940138;0.802429;0;2.4;-0.01814613;2.299985;
637949709133189526;537.737;23;2;2;0.6;1.8;1400;1.42857142857143;0.5785087;2.18944;0.5310457;2.124839;-0.3078177;0.6542765;-0.2940138;0.802429;
637949709153284048;539.7471;23;2;2;0.6;1.8;2010;0.995024875621891;-0.7794226;1.05;-0.626481;1.243682;0.5785087;2.18944;0.5310457;2.124839;
637949709167275142;541.1463;23;2;2;0.6;1.8;1399;1.42959256611866;0.8863269;1.656283;0.7001131;1.634731;-0.7794226;1.05;-0.626481;1.243682;
637949709198267314;544.2447;23;2;2;0.6;1.8;3098;0.645577792123951;-0.8863271;1.656283;-0.7499121;1.624393;0.8863269;1.656283;0.7001131;1.634731;
637949709212254067;545.6442;23;2;2;0.6;1.8;1399;1.42959256611866;0.779423;1.05;0.6434598;1.131717;-0.8863271;1.656283;-0.7499121;1.624393;
637949709225366567;546.9547;23;2;2;0.6;1.8;1310;1.52671755725191;-0.5785094;2.18944;-0.4882552;2.092571;0.779423;1.05;0.6434598;1.131717;
637949709241352265;548.5541;23;2;2;0.6;1.8;1600;1.25;0.3078185;0.6542768;0.2362775;0.8383918;-0.5785094;2.18944;-0.4882552;2.092571;
637949709992563482;623.6746;23;3;2.5;0.3;1.4;1499;1.66777851901268;-0.2394138;0.8422151;-0.2478769;0.9215727;0;2.2;-0.02649669;2.24191;
637949710007556856;625.1738;23;3;2.5;0.3;1.4;1499;1.66777851901268;0.4499513;2.036231;0.4527818;2.001162;-0.2394138;0.8422151;-0.2478769;0.9215727;
637949710038543830;628.2723;23;3;2.5;0.3;1.4;3099;0.806711842529848;-0.6062176;1.15;-0.5247071;1.199577;0.4499513;2.036231;0.4527818;2.001162;
637949710066720176;631.0823;23;3;2.5;0.3;1.4;2810;0.889679715302491;0.6893654;1.621554;0.6157069;1.580933;-0.6062176;1.15;-0.5247071;1.199577;
637949710094626454;633.881;23;3;2.5;0.3;1.4;2799;0.893176134333691;-0.6893655;1.621553;-0.5481115;1.590312;0.6893654;1.621554;0.6157069;1.580933;
637949710131604774;637.5792;23;3;2.5;0.3;1.4;3698;0.676041103299081;0.6062179;1.15;0.5225819;1.191858;-0.6893655;1.621553;-0.5481115;1.590312;
637949710189694245;643.3876;23;3;2.5;0.3;1.4;5808;0.430440771349862;-0.4499517;2.036231;-0.4348296;1.975757;0.6062179;1.15;0.5225819;1.191858;
637949710214687751;645.8866;23;3;2.5;0.3;1.4;2499;1.00040016006403;0.2394144;0.8422153;0.1983559;0.887008;-0.4499517;2.036231;-0.4348296;1.975757;
637949710243669119;648.7854;23;3;3;0.2;1.4;1200;2.5;-0.2394138;0.8422151;-0.2285538;0.8820995;0;2.2;0.007696154;2.149446;
637949710259662716;650.3847;23;3;3;0.2;1.4;1599;1.87617260787993;0.4499513;2.036231;0.4465232;1.995816;-0.2394138;0.8422151;-0.2285538;0.8820995;
637949710273765892;651.7947;23;3;3;0.2;1.4;1410;2.12765957446809;-0.6062176;1.15;-0.593949;1.136847;0.4499513;2.036231;0.4465232;1.995816;
637949710308743763;655.2933;23;3;3;0.2;1.4;3499;0.857387825092884;0.6893654;1.621554;0.6289023;1.61478;-0.6062176;1.15;-0.593949;1.136847;
637949710337730288;658.1918;23;3;3;0.2;1.4;2899;1.03483959986202;-0.6893655;1.621553;-0.6199216;1.615978;0.6893654;1.621554;0.6289023;1.61478;
637949710352733668;659.6913;23;3;3;0.2;1.4;1499;2.00133422281521;0.6062179;1.15;0.5428405;1.173101;-0.6893655;1.621553;-0.6199216;1.615978;
637949710367717043;661.1904;23;3;3;0.2;1.4;1499;2.00133422281521;-0.4499517;2.036231;-0.4858396;2.043745;0.6062179;1.15;0.5428405;1.173101;
637949710385711092;662.9897;23;3;3;0.2;1.4;1799;1.66759310728182;0.2394144;0.8422153;0.1852206;0.8772978;-0.4499517;2.036231;-0.4858396;2.043745;
637949710430801234;667.4987;23;3;4.5;0.1;2.2;2610;1.72413793103448;-0.3762217;0.4663379;-0.3731121;0.5032324;0;2.6;0.003609313;2.604573;
637949710472780684;671.6967;23;3;4.5;0.1;2.2;4198;1.07193901858028;0.7070663;2.342649;0.7028441;2.315985;-0.3762217;0.4663379;-0.3731121;0.5032324;
637949710492775187;673.6957;23;3;4.5;0.1;2.2;1999;2.25112556278139;-0.9526277;0.9499994;-0.9649392;0.9695866;0.7070663;2.342649;0.7028441;2.315985;
637949710509879034;675.406;23;3;4.5;0.1;2.2;1710;2.63157894736842;1.083289;1.691013;1.054626;1.685321;-0.9526277;0.9499994;-0.9649392;0.9695866;
637949710549861452;679.4043;23;3;4.5;0.1;2.2;3998;1.1255627813907;-1.083289;1.691012;-1.057306;1.703075;1.083289;1.691013;1.054626;1.685321;
637949710575843438;682.0031;23;3;4.5;0.1;2.2;2599;1.73143516737207;0.9526281;0.9500003;0.9091886;0.9736592;-1.083289;1.691012;-1.057306;1.703075;
637949710597836413;684.2021;23;3;4.5;0.1;2.2;2199;2.04638472032742;-0.7070671;2.342648;-0.6867657;2.297648;0.9526281;0.9500003;0.9091886;0.9736592;
637949710629935432;687.4116;23;3;4.5;0.1;2.2;3209;1.40230601433468;0.3762226;0.4663382;0.4021184;0.5009007;-0.7070671;2.342648;-0.6867657;2.297648;
637949710660922399;690.5102;23;3;2;0.6;1.8;1499;1.33422281521014;-0.3078177;0.6542765;-0.2783408;0.7938318;0;2.4;0.03123881;2.334363;
637949710688908709;693.3088;23;3;2;0.6;1.8;2799;0.714540907466952;0.5785087;2.18944;0.5414898;1.990768;-0.3078177;0.6542765;-0.2783408;0.7938318;
637949710706892753;695.108;23;3;2;0.6;1.8;1799;1.11172873818788;-0.7794226;1.05;-0.7210436;1.109518;0.5785087;2.18944;0.5414898;1.990768;
637949710725887031;697.007;23;3;2;0.6;1.8;1899;1.05318588730911;0.8863269;1.656283;0.7353602;1.669422;-0.7794226;1.05;-0.7210436;1.109518;
637949710752883108;699.7061;23;3;2;0.6;1.8;2699;0.741015190811412;-0.8863271;1.656283;-0.6149469;1.639856;0.8863269;1.656283;0.7353602;1.669422;
637949710767866480;701.2051;23;3;2;0.6;1.8;1499;1.33422281521014;0.779423;1.05;0.6461243;1.176928;-0.8863271;1.656283;-0.6149469;1.639856;
637949710785970549;703.0154;23;3;2;0.6;1.8;1810;1.10497237569061;-0.5785094;2.18944;-0.5300226;2.122153;0.779423;1.05;0.6461243;1.176928;
637949710800963927;704.515;23;3;2;0.6;1.8;1500;1.33333333333333;0.3078185;0.6542768;0.1965851;0.7908813;-0.5785094;2.18944;-0.5300226;2.122153;
637949710835951799;708.0133;23;3;4;0.1;1.4;1799;2.22345747637576;-0.2394138;0.8422151;-0.2390404;0.8627741;0;2.2;-0.008998804;2.18326;
637949710859937202;710.4123;23;3;4;0.1;1.4;2333;1.71453064723532;0.4499513;2.036231;0.4390024;2.010629;-0.2394138;0.8422151;-0.2390404;0.8627741;
637949710893924851;713.8104;23;3;4;0.1;1.4;3398;1.17716303708064;-0.6062176;1.15;-0.6023288;1.14226;0.4499513;2.036231;0.4390024;2.010629;
637949710914916629;715.9097;23;3;4;0.1;1.4;2099;1.90566936636494;0.6893654;1.621554;0.6746135;1.605608;-0.6062176;1.15;-0.6023288;1.14226;
637949710932909823;717.7094;23;3;4;0.1;1.4;1800;2.22222222222222;-0.6893655;1.621553;-0.6939658;1.602339;0.6893654;1.621554;0.6746135;1.605608;
637949710948007724;719.2191;23;3;4;0.1;1.4;1510;2.64900662251656;0.6062179;1.15;0.5753814;1.165128;-0.6893655;1.621553;-0.6939658;1.602339;
637949710977997164;722.2181;23;3;4;0.1;1.4;2999;1.33377792597533;-0.4499517;2.036231;-0.4398457;2.004319;0.6062179;1.15;0.5753814;1.165128;
637949710994980987;723.9169;23;3;4;0.1;1.4;1699;2.35432607416127;0.2394144;0.8422153;0.2664092;0.8827872;-0.4499517;2.036231;-0.4398457;2.004319;
637949711026968189;727.1156;23;3;3.5;0.2;2;1799;1.94552529182879;-0.3420197;0.5603072;-0.3056857;0.6514144;0;2.5;-0.01196976;2.497967;
637949711043962010;728.8144;23;3;3.5;0.2;2;1699;2.06003531489111;0.6427875;2.266045;0.5929971;2.225994;-0.3420197;0.5603072;-0.3056857;0.6514144;
637949711069947860;731.4135;23;3;3.5;0.2;2;2599;1.34667179684494;-0.8660251;0.9999995;-0.8310152;1.053934;0.6427875;2.266045;0.5929971;2.225994;
637949711089942361;733.4128;23;3;3.5;0.2;2;1999;1.75087543771886;0.9848077;1.673648;0.925889;1.636294;-0.8660251;0.9999995;-0.8310152;1.053934;
637949711117038459;736.1226;23;3;3.5;0.2;2;2710;1.29151291512915;-0.9848078;1.673648;-0.9813074;1.65843;0.9848077;1.673648;0.925889;1.636294;
637949711167019703;741.1202;23;3;3.5;0.2;2;4998;0.700280112044818;0.8660256;1;0.8228999;1.01102;-0.9848078;1.673648;-0.9813074;1.65843;
637949711186013984;743.0192;23;3;3.5;0.2;2;1899;1.84307530279094;-0.6427882;2.266044;-0.6102181;2.244219;0.8660256;1;0.8228999;1.01102;
637949711208999157;745.318;23;3;3.5;0.2;2;2299;1.52240104393214;0.3420205;0.5603075;0.3068959;0.6323848;-0.6427882;2.266044;-0.6102181;2.244219;
637949711237985682;748.2167;23;3;1.5;1.1;2;1599;0.938086303939963;-0.3420197;0.5603072;-0.190824;0.9313999;0;2.5;-0.04528093;2.367752;
637949711258083178;750.2268;23;3;1.5;1.1;2;2010;0.746268656716418;0.6427875;2.266045;0.5546465;2.066207;-0.3420197;0.5603072;-0.190824;0.9313999;
637949711287077879;753.1254;23;3;1.5;1.1;2;2899;0.517419799931011;-0.8660251;0.9999995;-0.5563262;1.221742;0.6427875;2.266045;0.5546465;2.066207;
637949711299070579;754.3251;23;3;1.5;1.1;2;1200;1.25;0.9848077;1.673648;0.7026535;1.802609;-0.8660251;0.9999995;-0.5563262;1.221742;
637949711312173525;755.6356;23;3;1.5;1.1;2;1310;1.14503816793893;-0.9848078;1.673648;-0.610484;1.724827;0.9848077;1.673648;0.7026535;1.802609;
637949711323165998;756.7352;23;3;1.5;1.1;2;1100;1.36363636363636;0.8660256;1;0.6295247;1.223509;-0.9848078;1.673648;-0.610484;1.724827;
637949711334168476;757.835;23;3;1.5;1.1;2;1100;1.36363636363636;-0.6427882;2.266044;-0.4711613;2.190575;0.8660256;1;0.6295247;1.223509;
637949711346151172;759.0338;23;3;1.5;1.1;2;1199;1.25104253544621;0.3420205;0.5603075;0.199756;0.8529327;-0.6427882;2.266044;-0.4711613;2.190575;
637949712698642298;894.2826;23;4;2;0.6;1.8;1800;1.11111111111111;-0.3078177;0.6542765;-0.2939654;0.8230685;0;2.4;0.015034;2.360012;
637949712713634374;895.7816;23;4;2;0.6;1.8;1499;1.33422281521014;0.5785087;2.18944;0.5865771;2.152148;-0.3078177;0.6542765;-0.2939654;0.8230685;
637949712727625534;897.1809;23;4;2;0.6;1.8;1399;1.42959256611866;-0.7794226;1.05;-0.6546503;1.145139;0.5785087;2.18944;0.5865771;2.152148;
637949712751616926;899.5796;23;4;2;0.6;1.8;2399;0.833680700291788;0.8863269;1.656283;0.7434912;1.60064;-0.7794226;1.05;-0.6546503;1.145139;
637949712772711670;901.6897;23;4;2;0.6;1.8;2110;0.947867298578199;-0.8863271;1.656283;-0.7059752;1.639213;0.8863269;1.656283;0.7434912;1.60064;
637949712790705721;903.4889;23;4;2;0.6;1.8;1799;1.11172873818788;0.779423;1.05;0.5464001;1.082979;-0.8863271;1.656283;-0.7059752;1.639213;
637949712811700448;905.5879;23;4;2;0.6;1.8;2099;0.952834683182468;-0.5785094;2.18944;-0.4652399;2.107425;0.779423;1.05;0.5464001;1.082979;
637949712832695169;907.6873;23;4;2;0.6;1.8;2099;0.952834683182468;0.3078185;0.6542768;0.150894;0.8268608;-0.5785094;2.18944;-0.4652399;2.107425;
637949712882666422;912.685;23;4;1.5;1.1;2;2299;0.652457590256633;-0.3420197;0.5603072;-0.2294704;0.9652292;0;2.5;0.04425353;2.113488;
637949712914653620;915.8833;23;4;1.5;1.1;2;3198;0.469043151969981;0.6427875;2.266045;0.4516818;1.983114;-0.3420197;0.5603072;-0.2294704;0.9652292;
637949712969736018;921.3917;23;4;1.5;1.1;2;5508;0.272331154684096;-0.8660251;0.9999995;-0.6283054;0.8848553;0.6427875;2.266045;0.4516818;1.983114;
637949712987730071;923.191;23;4;1.5;1.1;2;1799;0.833796553640912;0.9848077;1.673648;0.8276536;1.736885;-0.8660251;0.9999995;-0.6283054;0.8848553;
637949713003718696;924.7906;23;4;1.5;1.1;2;1600;0.9375;-0.9848078;1.673648;-0.7912953;1.659112;0.9848077;1.673648;0.8276536;1.736885;
637949713021709149;926.5894;23;4;1.5;1.1;2;1799;0.833796553640912;0.8660256;1;0.682041;1.159119;-0.9848078;1.673648;-0.7912953;1.659112;
637949713038699484;928.2886;23;4;1.5;1.1;2;1699;0.882872277810477;-0.6427882;2.266044;-0.5022233;2.14014;0.8660256;1;0.682041;1.159119;
637949713051692408;929.588;23;4;1.5;1.1;2;1299;1.15473441108545;0.3420205;0.5603075;0.2417177;0.9110568;-0.6427882;2.266044;-0.5022233;2.14014;
637949713117777611;936.1961;23;4;4.5;0.1;2.2;2698;1.66790214974055;-0.3762217;0.4663379;-0.3828639;0.5016508;0;2.6;-0.01547326;2.560162;
637949713140772795;938.4951;23;4;4.5;0.1;2.2;2299;1.9573727707699;0.7070663;2.342649;0.7079186;2.306297;-0.3762217;0.4663379;-0.3828639;0.5016508;
637949713170749550;941.4937;23;4;4.5;0.1;2.2;2999;1.50050016672224;-0.9526277;0.9499994;-0.9499623;0.944322;0.7070663;2.342649;0.7079186;2.306297;
637949713205737418;944.9921;23;4;4.5;0.1;2.2;3498;1.28644939965695;1.083289;1.691013;1.05748;1.659192;-0.9526277;0.9499994;-0.9499623;0.944322;
637949713224841717;946.9023;23;4;4.5;0.1;2.2;1910;2.35602094240838;-1.083289;1.691012;-1.066881;1.667197;1.083289;1.691013;1.05748;1.659192;
637949713243825992;948.8013;23;4;4.5;0.1;2.2;1899;2.3696682464455;0.9526281;0.9500003;0.9211181;0.9885284;-1.083289;1.691012;-1.066881;1.667197;
637949713265820941;951.0004;23;4;4.5;0.1;2.2;2199;2.04638472032742;-0.7070671;2.342648;-0.6959412;2.333507;0.9526281;0.9500003;0.9211181;0.9885284;
637949713306800159;955.0983;23;4;4.5;0.1;2.2;4098;1.09809663250366;0.3762226;0.4663382;0.3704365;0.4550805;-0.7070671;2.342648;-0.6959412;2.333507;
637949713335786687;957.9971;23;4;4;0.1;1.4;1499;2.66844563042028;-0.2394138;0.8422151;-0.2570751;0.8783125;0;2.2;-0.0230903;2.1679;
637949713354774893;959.8962;23;4;4;0.1;1.4;1899;2.10637177461822;0.4499513;2.036231;0.4487597;2.026317;-0.2394138;0.8422151;-0.2570751;0.8783125;
637949713374776805;961.8955;23;4;4;0.1;1.4;1999;2.00100050025012;-0.6062176;1.15;-0.5982964;1.162068;0.4499513;2.036231;0.4487597;2.026317;
637949713403873360;964.8057;23;4;4;0.1;1.4;2910;1.3745704467354;0.6893654;1.621554;0.6536068;1.609438;-0.6062176;1.15;-0.5982964;1.162068;
637949713435848932;968.0035;23;4;4;0.1;1.4;3198;1.25078173858662;-0.6893655;1.621553;-0.6808167;1.62743;0.6893654;1.621554;0.6536068;1.609438;
637949713456853662;970.1036;23;4;4;0.1;1.4;2100;1.9047619047619;0.6062179;1.15;0.6035978;1.171399;-0.6893655;1.621553;-0.6808167;1.62743;
637949713497822882;974.2007;23;4;4;0.1;1.4;4097;0.976324139614352;-0.4499517;2.036231;-0.4441947;2.006875;0.6062179;1.15;0.6035978;1.171399;
637949713569899108;981.4086;23;4;4;0.1;1.4;7208;0.554938956714761;0.2394144;0.8422153;0.2226798;0.8409321;-0.4499517;2.036231;-0.4441947;2.006875;
637949713631873058;987.6055;23;4;3;0.2;1.4;3896;0.770020533880904;-0.2394138;0.8422151;-0.236033;0.8410095;0;2.2;-0.01014177;2.123475;
637949713649867103;989.4047;23;4;3;0.2;1.4;1799;1.66759310728182;0.4499513;2.036231;0.4263934;1.998289;-0.2394138;0.8422151;-0.236033;0.8410095;
637949713662860028;990.7042;23;4;3;0.2;1.4;1299;2.3094688221709;-0.6062176;1.15;-0.6326594;1.103894;0.4499513;2.036231;0.4263934;1.998289;
637949713690851301;993.5033;23;4;3;0.2;1.4;2799;1.07181136120043;0.6893654;1.621554;0.6651741;1.620957;-0.6062176;1.15;-0.6326594;1.103894;
637949713745928970;999.0112;23;4;3;0.2;1.4;5508;0.544662309368192;-0.6893655;1.621553;-0.6220904;1.553166;0.6893654;1.621554;0.6651741;1.620957;
637949713774923112;1001.91;23;4;3;0.2;1.4;2899;1.03483959986202;0.6062179;1.15;0.5343397;1.151503;-0.6893655;1.621553;-0.6220904;1.553166;
637949713819015868;1006.319;23;4;3;0.2;1.4;4409;0.680426400544341;-0.4499517;2.036231;-0.4463229;1.981269;0.6062179;1.15;0.5343397;1.151503;
637949713839000362;1008.318;23;4;3;0.2;1.4;1999;1.50075037518759;0.2394144;0.8422153;0.2148398;0.8915516;-0.4499517;2.036231;-0.4463229;1.981269;
637949713876978915;1012.117;23;4;3.5;0.2;2;1699;2.06003531489111;-0.3420197;0.5603072;-0.323833;0.615243;0;2.5;0.008030749;2.438974;
637949713890972066;1013.516;23;4;3.5;0.2;2;1399;2.50178699070765;0.6427875;2.266045;0.6064735;2.229726;-0.3420197;0.5603072;-0.323833;0.615243;
637949713906965668;1015.115;23;4;3.5;0.2;2;1599;2.18886804252658;-0.8660251;0.9999995;-0.8457749;1.052325;0.6427875;2.266045;0.6064735;2.229726;
637949713918958365;1016.314;23;4;3.5;0.2;2;1199;2.91909924937448;0.9848077;1.673648;0.9297857;1.62402;-0.8660251;0.9999995;-0.8457749;1.052325;
637949713940953318;1018.513;23;4;3.5;0.2;2;2199;1.59163256025466;-0.9848078;1.673648;-0.9591694;1.636489;0.9848077;1.673648;0.9297857;1.62402;
637949713960937812;1020.513;23;4;3.5;0.2;2;1999;1.75087543771886;0.8660256;1;0.7724108;1.012194;-0.9848078;1.673648;-0.9591694;1.636489;
637949713975040984;1021.923;23;4;3.5;0.2;2;1410;2.4822695035461;-0.6427882;2.266044;-0.6363608;2.240945;0.8660256;1;0.7724108;1.012194;
637949713988043917;1023.223;23;4;3.5;0.2;2;1300;2.69230769230769;0.3420205;0.5603075;0.3017217;0.6422247;-0.6427882;2.266044;-0.6363608;2.240945;
637949714069117197;1031.33;23;4;2.5;0.3;1.4;6808;0.367215041128085;-0.2394138;0.8422151;-0.1966843;0.8413178;0;2.2;-0.03823331;2.175952;
637949714092111784;1033.629;23;4;2.5;0.3;1.4;2299;1.08742931709439;0.4499513;2.036231;0.4169556;2.032594;-0.2394138;0.8422151;-0.1966843;0.8413178;
637949714108093997;1035.228;23;4;2.5;0.3;1.4;1599;1.56347717323327;-0.6062176;1.15;-0.5834925;1.152352;0.4499513;2.036231;0.4169556;2.032594;
637949714123094218;1036.727;23;4;2.5;0.3;1.4;1499;1.66777851901268;0.6893654;1.621554;0.6102789;1.581167;-0.6062176;1.15;-0.5834925;1.152352;
637949714134083981;1037.827;23;4;2.5;0.3;1.4;1099;2.27479526842584;-0.6893655;1.621553;-0.6184949;1.613243;0.6893654;1.621554;0.6102789;1.581167;
637949714154078327;1039.826;23;4;2.5;0.3;1.4;1999;1.25062531265633;0.6062179;1.15;0.5402427;1.190407;-0.6893655;1.621553;-0.6184949;1.613243;
637949714180063353;1042.425;23;4;2.5;0.3;1.4;2599;0.961908426317814;-0.4499517;2.036231;-0.4182281;1.907025;0.6062179;1.15;0.5402427;1.190407;
637949714199137645;1044.324;23;4;2.5;0.3;1.4;1899;1.31648235913639;0.2394144;0.8422153;0.1806816;0.8994375;-0.4499517;2.036231;-0.4182281;1.907025;
637949714885416575;1112.959;23;5;3;0.2;1.4;2711;1.10660272962007;-0.2394138;0.8422151;-0.2474015;0.8942492;0;2.2;-0.003461829;2.162319;
637949714899389726;1114.358;23;5;3;0.2;1.4;1398;2.14592274678112;0.4499513;2.036231;0.4234349;1.96967;-0.2394138;0.8422151;-0.2474015;0.8942492;
637949714912382653;1115.657;23;5;3;0.2;1.4;1299;2.3094688221709;-0.6062176;1.15;-0.6794029;1.111966;0.4499513;2.036231;0.4234349;1.96967;
637949714926375799;1117.056;23;5;3;0.2;1.4;1399;2.14438884917798;0.6893654;1.621554;0.6944154;1.621053;-0.6062176;1.15;-0.6794029;1.111966;
637949714954362101;1119.855;23;5;3;0.2;1.4;2799;1.07181136120043;-0.6893655;1.621553;-0.6361648;1.551065;0.6893654;1.621554;0.6944154;1.621053;
637949714973366380;1121.755;23;5;3;0.2;1.4;1900;1.57894736842105;0.6062179;1.15;0.5521953;1.199733;-0.6893655;1.621553;-0.6361648;1.551065;
637949714999352227;1124.353;23;5;3;0.2;1.4;2598;1.15473441108545;-0.4499517;2.036231;-0.4776927;1.971644;0.6062179;1.15;0.5521953;1.199733;
637949715014335593;1125.852;23;5;3;0.2;1.4;1499;2.00133422281521;0.2394144;0.8422153;0.1761098;0.8976444;-0.4499517;2.036231;-0.4776927;1.971644;
637949715058427303;1130.262;23;5;1.5;1.1;2;1999;0.750375187593797;-0.3420197;0.5603072;-0.2824808;0.7561108;0;2.5;-0.03981055;2.111531;
637949715105410016;1134.959;23;5;1.5;1.1;2;4698;0.319284802043423;0.6427875;2.266045;0.5227954;1.964055;-0.3420197;0.5603072;-0.2824808;0.7561108;
637949715117402532;1136.159;23;5;1.5;1.1;2;1199;1.25104253544621;-0.8660251;0.9999995;-0.6084019;1.184463;0.6427875;2.266045;0.5227954;1.964055;
637949715132394019;1137.658;23;5;1.5;1.1;2;1499;1.00066711140761;0.9848077;1.673648;0.721284;1.600061;-0.8660251;0.9999995;-0.6084019;1.184463;
637949715141396047;1138.558;23;5;1.5;1.1;2;900;1.66666666666667;-0.9848078;1.673648;-0.6051556;1.744151;0.9848077;1.673648;0.721284;1.600061;
637949715170382569;1141.456;23;5;1.5;1.1;2;2899;0.517419799931011;0.8660256;1;0.5671129;1.241843;-0.9848078;1.673648;-0.6051556;1.744151;
637949715183485519;1142.767;23;5;1.5;1.1;2;1310;1.14503816793893;-0.6427882;2.266044;-0.4553645;2.129604;0.8660256;1;0.5671129;1.241843;
637949715196488445;1144.066;23;5;1.5;1.1;2;1300;1.15384615384615;0.3420205;0.5603075;0.1570047;0.9182398;-0.6427882;2.266044;-0.4553645;2.129604;
637949715240458348;1148.464;23;5;3.5;0.2;2;2899;1.20731286650569;-0.3420197;0.5603072;-0.3430695;0.5899843;0;2.5;-0.003629688;2.402579;
637949715254451489;1149.864;23;5;3.5;0.2;2;1400;2.5;0.6427875;2.266045;0.6209962;2.21833;-0.3420197;0.5603072;-0.3430695;0.5899843;
637949715271445319;1151.563;23;5;3.5;0.2;2;1699;2.06003531489111;-0.8660251;0.9999995;-0.8524128;1.01909;0.6427875;2.266045;0.6209962;2.21833;
637949715291429813;1153.562;23;5;3.5;0.2;2;1999;1.75087543771886;0.9848077;1.673648;0.9384091;1.681587;-0.8660251;0.9999995;-0.8524128;1.01909;
637949715307423414;1155.161;23;5;3.5;0.2;2;1599;2.18886804252658;-0.9848078;1.673648;-0.9364086;1.663662;0.9848077;1.673648;0.9384091;1.681587;
637949715345521988;1158.97;23;5;3.5;0.2;2;3809;0.918876345497506;0.8660256;1;0.8508463;0.9992169;-0.9848078;1.673648;-0.9364086;1.663662;
637949715360515365;1160.47;23;5;3.5;0.2;2;1500;2.33333333333333;-0.6427882;2.266044;-0.6128869;2.248513;0.8660256;1;0.8508463;0.9992169;
637949715393502790;1163.768;23;5;3.5;0.2;2;3298;1.06124924196483;0.3420205;0.5603075;0.3096302;0.6109028;-0.6427882;2.266044;-0.6128869;2.248513;
637949715414491439;1165.867;23;5;2;0.6;1.8;1000;2;-0.3078177;0.6542765;-0.2329769;0.8885486;0;2.4;-0.04043853;2.255224;
637949715426484434;1167.066;23;5;2;0.6;1.8;1199;1.66805671392827;0.5785087;2.18944;0.5491261;2.116083;-0.3078177;0.6542765;-0.2329769;0.8885486;
637949715441477803;1168.566;23;5;2;0.6;1.8;1499;1.33422281521014;-0.7794226;1.05;-0.6337056;1.077039;0.5785087;2.18944;0.5491261;2.116083;
637949715456473613;1170.065;23;5;2;0.6;1.8;1500;1.33333333333333;0.8863269;1.656283;0.6847391;1.599915;-0.7794226;1.05;-0.6337056;1.077039;
637949715471464274;1171.564;23;5;2;0.6;1.8;1499;1.33422281521014;-0.8863271;1.656283;-0.8289843;1.598191;0.8863269;1.656283;0.6847391;1.599915;
637949715499560602;1174.375;23;5;2;0.6;1.8;2810;0.711743772241993;0.779423;1.05;0.5540537;1.097859;-0.8863271;1.656283;-0.8289843;1.598191;
637949715515554203;1175.974;23;5;2;0.6;1.8;1599;1.25078173858662;-0.5785094;2.18944;-0.5208623;2.012213;0.779423;1.05;0.5540537;1.097859;
637949715535538695;1177.973;23;5;2;0.6;1.8;1999;1.00050025012506;0.3078185;0.6542768;0.2246303;0.8427783;-0.5785094;2.18944;-0.5208623;2.012213;
637949715607504892;1185.169;23;5;4;0.1;1.4;2998;1.33422281521014;-0.2394138;0.8422151;-0.2270851;0.8407375;0;2.2;-0.0005497374;2.174308;
637949715654595495;1189.878;23;5;4;0.1;1.4;4709;0.849437247823317;0.4499513;2.036231;0.4383903;1.990741;-0.2394138;0.8422151;-0.2270851;0.8407375;
637949715673589768;1191.778;23;5;4;0.1;1.4;1900;2.10526315789474;-0.6062176;1.15;-0.5752195;1.151933;0.4499513;2.036231;0.4383903;1.990741;
637949715694584494;1193.876;23;5;4;0.1;1.4;2099;1.90566936636494;0.6893654;1.621554;0.6457293;1.625734;-0.6062176;1.15;-0.5752195;1.151933;
637949715717569669;1196.175;23;5;4;0.1;1.4;2299;1.73988690735102;-0.6893655;1.621553;-0.6520166;1.603674;0.6893654;1.621554;0.6457293;1.625734;
637949715750560741;1199.474;23;5;4;0.1;1.4;3299;1.21248863291907;0.6062179;1.15;0.5801851;1.154253;-0.6893655;1.621553;-0.6520166;1.603674;
637949715769545011;1201.373;23;5;4;0.1;1.4;1899;2.10637177461822;-0.4499517;2.036231;-0.4426568;2.008233;0.6062179;1.15;0.5801851;1.154253;
637949715786536807;1203.072;23;5;4;0.1;1.4;1699;2.35432607416127;0.2394144;0.8422153;0.2393833;0.8674905;-0.4499517;2.036231;-0.4426568;2.008233;
637949715845618930;1208.98;23;5;2.5;0.3;1.4;4198;0.595521676989042;-0.2394138;0.8422151;-0.2510183;0.9001763;0;2.2;-0.03175644;2.071787;
637949715867723905;1211.19;23;5;2.5;0.3;1.4;2210;1.13122171945701;0.4499513;2.036231;0.3735957;1.977356;-0.2394138;0.8422151;-0.2510183;0.9001763;
637949715881717054;1212.59;23;5;2.5;0.3;1.4;1400;1.78571428571429;-0.6062176;1.15;-0.5619644;1.183317;0.4499513;2.036231;0.3735957;1.977356;
637949715908703130;1215.289;23;5;2.5;0.3;1.4;2699;0.926268988514265;0.6893654;1.621554;0.596799;1.614316;-0.6062176;1.15;-0.5619644;1.183317;
637949715923696502;1216.788;23;5;2.5;0.3;1.4;1500;1.66666666666667;-0.6893655;1.621553;-0.6495073;1.576396;0.6893654;1.621554;0.596799;1.614316;
637949715955683697;1219.986;23;5;2.5;0.3;1.4;3198;0.781738586616635;0.6062179;1.15;0.5301573;1.144046;-0.6893655;1.621553;-0.6495073;1.576396;
637949715969676850;1221.386;23;5;2.5;0.3;1.4;1400;1.78571428571429;-0.4499517;2.036231;-0.4436992;1.984918;0.6062179;1.15;0.5301573;1.144046;
637949715986670679;1223.085;23;5;2.5;0.3;1.4;1699;1.47145379635079;0.2394144;0.8422153;0.1704942;0.8439453;-0.4499517;2.036231;-0.4436992;1.984918;
637949716065738473;1230.992;23;5;4.5;0.1;2.2;5408;0.832100591715976;-0.3762217;0.4663379;-0.3728674;0.493566;0;2.6;0.01057194;2.570802;
637949716095726580;1233.991;23;5;4.5;0.1;2.2;2999;1.50050016672224;0.7070663;2.342649;0.6832496;2.324616;-0.3762217;0.4663379;-0.3728674;0.493566;
637949716119721981;1236.39;23;5;4.5;0.1;2.2;2399;1.87578157565652;-0.9526277;0.9499994;-0.9250254;0.9876486;0.7070663;2.342649;0.6832496;2.324616;
637949716144706086;1238.889;23;5;4.5;0.1;2.2;2498;1.80144115292234;1.083289;1.691013;1.072799;1.680612;-0.9526277;0.9499994;-0.9250254;0.9876486;
637949716174805851;1241.899;23;5;4.5;0.1;2.2;3010;1.49501661129568;-1.083289;1.691012;-1.056666;1.690594;1.083289;1.691013;1.072799;1.680612;
637949716220776196;1246.496;23;5;4.5;0.1;2.2;4598;0.97868638538495;0.9526281;0.9500003;0.9206752;0.9504942;-1.083289;1.691012;-1.056666;1.690594;
637949716252763399;1249.695;23;5;4.5;0.1;2.2;3198;1.40712945590994;-0.7070671;2.342648;-0.6696312;2.316017;0.9526281;0.9500003;0.9206752;0.9504942;
637949716276748794;1252.094;23;5;4.5;0.1;2.2;2399;1.87578157565652;0.3762226;0.4663382;0.3719932;0.4609088;-0.7070671;2.342648;-0.6696312;2.316017;
637949716975203360;1321.939;23;6;1.5;1.1;2;799;1.87734668335419;-0.3420197;0.5603072;-0.3535829;0.9718961;0;2.5;-0.06382488;2.254632;
637949716981204710;1322.539;23;6;1.5;1.1;2;600;2.5;0.6427875;2.266045;0.3872076;1.931304;-0.3420197;0.5603072;-0.3535829;0.9718961;
637949716989206513;1323.339;23;6;1.5;1.1;2;800;1.875;-0.8660251;0.9999995;-0.7441006;1.327635;0.6427875;2.266045;0.3872076;1.931304;
637949716999198762;1324.338;23;6;1.5;1.1;2;1000;1.5;0.9848077;1.673648;0.4480776;1.631283;-0.8660251;0.9999995;-0.7441006;1.327635;
637949717013191910;1325.737;23;6;1.5;1.1;2;1399;1.07219442458899;-0.9848078;1.673648;-0.5582644;1.667166;0.9848077;1.673648;0.4480776;1.631283;
637949717025184610;1326.937;23;6;1.5;1.1;2;1200;1.25;0.8660256;1;0.6999086;1.189261;-0.9848078;1.673648;-0.5582644;1.667166;
637949717034186637;1327.837;23;6;1.5;1.1;2;899;1.66852057842047;-0.6427882;2.266044;-0.4884471;2.03058;0.8660256;1;0.6999086;1.189261;
637949717045179111;1328.936;23;6;1.5;1.1;2;1099;1.36487716105551;0.3420205;0.5603075;0.1178866;0.9623467;-0.6427882;2.266044;-0.4884471;2.03058;
637949717073280056;1331.746;23;6;4;0.1;1.4;1411;2.83486888731396;-0.2394138;0.8422151;-0.2183578;0.8642533;0;2.2;0.01484929;2.166234;
637949717088263426;1333.245;23;6;4;0.1;1.4;1499;2.66844563042028;0.4499513;2.036231;0.4124435;2.02032;-0.2394138;0.8422151;-0.2183578;0.8642533;
637949717102263460;1334.644;23;6;4;0.1;1.4;1399;2.85918513223731;-0.6062176;1.15;-0.5946643;1.193229;0.4499513;2.036231;0.4124435;2.02032;
637949717116257657;1336.044;23;6;4;0.1;1.4;1399;2.85918513223731;0.6893654;1.621554;0.6533319;1.602089;-0.6062176;1.15;-0.5946643;1.193229;
637949717139250231;1338.343;23;6;4;0.1;1.4;2299;1.73988690735102;-0.6893655;1.621553;-0.6516708;1.608634;0.6893654;1.621554;0.6533319;1.602089;
637949717163235629;1340.742;23;6;4;0.1;1.4;2399;1.66736140058358;0.6062179;1.15;0.5751899;1.134046;-0.6893655;1.621553;-0.6516708;1.608634;
637949717207325553;1345.151;23;6;4;0.1;1.4;4409;0.907235200725788;-0.4499517;2.036231;-0.4374117;2.025235;0.6062179;1.15;0.5751899;1.134046;
637949717222318922;1346.65;23;6;4;0.1;1.4;1500;2.66666666666667;0.2394144;0.8422153;0.2400113;0.8919886;-0.4499517;2.036231;-0.4374117;2.025235;
637949717271289950;1351.547;23;6;4.5;0.1;2.2;3398;1.32430841671572;-0.3762217;0.4663379;-0.394923;0.5127108;0;2.6;-0.003108413;2.56044;
637949717335264351;1357.945;23;6;4.5;0.1;2.2;6397;0.703454744411443;0.7070663;2.342649;0.68505;2.332314;-0.3762217;0.4663379;-0.394923;0.5127108;
637949717357369324;1360.155;23;6;4.5;0.1;2.2;2210;2.03619909502262;-0.9526277;0.9499994;-0.9345199;0.9560442;0.7070663;2.342649;0.68505;2.332314;
637949717375373378;1361.955;23;6;4.5;0.1;2.2;1800;2.5;1.083289;1.691013;1.060075;1.6474;-0.9526277;0.9499994;-0.9345199;0.9560442;
637949717412335722;1365.652;23;6;4.5;0.1;2.2;3698;1.21687398593835;-1.083289;1.691012;-1.063656;1.651922;1.083289;1.691013;1.060075;1.6474;
637949717436329240;1368.051;23;6;4.5;0.1;2.2;2399;1.87578157565652;0.9526281;0.9500003;0.9225212;0.9363682;-1.083289;1.691012;-1.063656;1.651922;
637949717469542300;1371.379;23;6;4.5;0.1;2.2;3328;1.35216346153846;-0.7070671;2.342648;-0.6943823;2.29437;0.9526281;0.9500003;0.9225212;0.9363682;
637949717488305050;1373.249;23;6;4.5;0.1;2.2;1869;2.40770465489567;0.3762226;0.4663382;0.3914887;0.4980042;-0.7070671;2.342648;-0.6943823;2.29437;
637949717515412115;1375.959;23;6;3;0.2;1.4;1100;2.72727272727273;-0.2394138;0.8422151;-0.223044;0.8773284;0;2.2;0.01731626;2.191861;
637949717526404589;1377.058;23;6;3;0.2;1.4;1099;2.72975432211101;0.4499513;2.036231;0.4613842;2.052975;-0.2394138;0.8422151;-0.223044;0.8773284;
637949717535396613;1377.958;23;6;3;0.2;1.4;899;3.33704115684093;-0.6062176;1.15;-0.6811465;1.115595;0.4499513;2.036231;0.4613842;2.052975;
637949717545388862;1378.957;23;6;3;0.2;1.4;999;3.003003003003;0.6893654;1.621554;0.7291949;1.647144;-0.6062176;1.15;-0.6811465;1.115595;
637949717555381108;1379.957;23;6;3;0.2;1.4;1000;3;-0.6893655;1.621553;-0.7738149;1.610077;0.6893654;1.621554;0.7291949;1.647144;
637949717566373582;1381.056;23;6;3;0.2;1.4;1099;2.72975432211101;0.6062179;1.15;0.5629323;1.138572;-0.6893655;1.621553;-0.7738149;1.610077;
637949717594369884;1383.855;23;6;3;0.2;1.4;2799;1.07181136120043;-0.4499517;2.036231;-0.4303418;1.989578;0.6062179;1.15;0.5629323;1.138572;
637949717606362584;1385.055;23;6;3;0.2;1.4;1199;2.50208507089241;0.2394144;0.8422153;0.1695782;0.8712428;-0.4499517;2.036231;-0.4303418;1.989578;
637949717623356409;1386.754;23;6;2;0.6;1.8;800;2.5;-0.3078177;0.6542765;-0.277172;0.9304923;0;2.4;-0.02189894;2.215253;
637949717630347983;1387.453;23;6;2;0.6;1.8;700;2.85714285714286;0.5785087;2.18944;0.4059709;2.086573;-0.3078177;0.6542765;-0.277172;0.9304923;
637949717637349558;1388.153;23;6;2;0.6;1.8;700;2.85714285714286;-0.7794226;1.05;-0.6503983;1.282487;0.5785087;2.18944;0.4059709;2.086573;
637949717654453408;1389.863;23;6;2;0.6;1.8;1710;1.16959064327485;0.8863269;1.656283;0.6952684;1.659782;-0.7794226;1.05;-0.6503983;1.282487;
637949717664445655;1390.863;23;6;2;0.6;1.8;1000;2;-0.8863271;1.656283;-0.62884;1.695157;0.8863269;1.656283;0.6952684;1.659782;
637949717679439031;1392.363;23;6;2;0.6;1.8;1500;1.33333333333333;0.779423;1.05;0.6862132;1.213251;-0.8863271;1.656283;-0.62884;1.695157;
637949717693432185;1393.761;23;6;2;0.6;1.8;1399;1.42959256611866;-0.5785094;2.18944;-0.4488685;2.020057;0.779423;1.05;0.6862132;1.213251;
637949717708425557;1395.261;23;6;2;0.6;1.8;1500;1.33333333333333;0.3078185;0.6542768;0.2041752;0.9242219;-0.5785094;2.18944;-0.4488685;2.020057;
637949717759397028;1400.359;23;6;2.5;0.3;1.4;1400;1.78571428571429;-0.2394138;0.8422151;-0.1871456;0.9625239;0;2.2;-0.001056467;2.129618;
637949717773390177;1401.758;23;6;2.5;0.3;1.4;1399;1.78699070764832;0.4499513;2.036231;0.3705065;2.003351;-0.2394138;0.8422151;-0.1871456;0.9625239;
637949717785392880;1402.957;23;6;2.5;0.3;1.4;1199;2.08507089241034;-0.6062176;1.15;-0.563411;1.138382;0.4499513;2.036231;0.3705065;2.003351;
637949717802382100;1404.657;23;6;2.5;0.3;1.4;1699;1.47145379635079;0.6893654;1.621554;0.6254072;1.650504;-0.6062176;1.15;-0.563411;1.138382;
637949717815375026;1405.956;23;6;2.5;0.3;1.4;1299;1.92455735180908;-0.6893655;1.621553;-0.6342212;1.644899;0.6893654;1.621554;0.6254072;1.650504;
637949717828387956;1407.256;23;6;2.5;0.3;1.4;1301;1.92159877017679;0.6062179;1.15;0.5554395;1.212755;-0.6893655;1.621553;-0.6342212;1.644899;
637949717840468996;1408.466;23;6;2.5;0.3;1.4;1209;2.06782464846981;-0.4499517;2.036231;-0.4561698;1.994852;0.6062179;1.15;0.5554395;1.212755;
637949717854470941;1409.865;23;6;2.5;0.3;1.4;1399;1.78699070764832;0.2394144;0.8422153;0.1983951;0.958165;-0.4499517;2.036231;-0.4561698;1.994852;
637949717887453326;1413.164;23;6;3.5;0.2;2;2099;1.66746069556932;-0.3420197;0.5603072;-0.3584821;0.587502;0;2.5;-0.04500778;2.425753;
637949717901446474;1414.563;23;6;3.5;0.2;2;1400;2.5;0.6427875;2.266045;0.6413234;2.237027;-0.3420197;0.5603072;-0.3584821;0.587502;
637949717924431647;1416.862;23;6;3.5;0.2;2;2299;1.52240104393214;-0.8660251;0.9999995;-0.8345909;1.01881;0.6427875;2.266045;0.6413234;2.237027;
637949717943535948;1418.772;23;6;3.5;0.2;2;1910;1.83246073298429;0.9848077;1.673648;0.9479199;1.636898;-0.8660251;0.9999995;-0.8345909;1.01881;
637949717955528650;1419.972;23;6;3.5;0.2;2;1200;2.91666666666667;-0.9848078;1.673648;-0.8953592;1.687776;0.9848077;1.673648;0.9479199;1.636898;
637949717966531125;1421.071;23;6;3.5;0.2;2;1100;3.18181818181818;0.8660256;1;0.8287806;0.9955879;-0.9848078;1.673648;-0.8953592;1.687776;
637949717978523819;1422.27;23;6;3.5;0.2;2;1199;2.91909924937448;-0.6427882;2.266044;-0.6173562;2.180115;0.8660256;1;0.8287806;0.9955879;
637949717990516523;1423.47;23;6;3.5;0.2;2;1200;2.91666666666667;0.3420205;0.5603075;0.3017384;0.6329124;-0.6427882;2.266044;-0.6173562;2.180115;
637949718619670808;1486.385;23;7;4.5;0.1;2.2;2699;1.66728417932568;-0.3762217;0.4663379;-0.3738889;0.4963101;0;2.6;-0.002757046;2.567276;
637949718633663959;1487.785;23;7;4.5;0.1;2.2;1399;3.21658327376698;0.7070663;2.342649;0.6890543;2.340778;-0.3762217;0.4663379;-0.3738889;0.4963101;
637949718665761184;1490.994;23;7;4.5;0.1;2.2;3210;1.4018691588785;-0.9526277;0.9499994;-0.9199957;0.9470887;0.7070663;2.342649;0.6890543;2.340778;
637949718682755002;1492.693;23;7;4.5;0.1;2.2;1699;2.64861683343143;1.083289;1.691013;1.036323;1.690509;-0.9526277;0.9499994;-0.9199957;0.9470887;
637949718700739057;1494.493;23;7;4.5;0.1;2.2;1799;2.50138966092273;-1.083289;1.691012;-1.046454;1.657792;1.083289;1.691013;1.036323;1.690509;
637949718726734908;1497.091;23;7;4.5;0.1;2.2;2599;1.73143516737207;0.9526281;0.9500003;0.9479793;0.9403883;-1.083289;1.691012;-1.046454;1.657792;
637949718764713453;1500.89;23;7;4.5;0.1;2.2;3798;1.18483412322275;-0.7070671;2.342648;-0.6845458;2.31534;0.9526281;0.9500003;0.9479793;0.9403883;
637949718802692004;1504.688;23;7;4.5;0.1;2.2;3798;1.18483412322275;0.3762226;0.4663382;0.3781779;0.4705657;-0.7070671;2.342648;-0.6845458;2.31534;
637949718873767999;1511.796;23;7;3.5;0.2;2;2898;1.20772946859903;-0.3420197;0.5603072;-0.3243878;0.6020225;0;2.5;0.005834031;2.478908;
637949718928746356;1517.293;23;7;3.5;0.2;2;5497;0.636710933236311;0.6427875;2.266045;0.6146982;2.18976;-0.3420197;0.5603072;-0.3243878;0.6020225;
637949718958732260;1520.292;23;7;3.5;0.2;2;2999;1.16705568522841;-0.8660251;0.9999995;-0.835644;1.010674;0.6427875;2.266045;0.6146982;2.18976;
637949718982837686;1522.702;23;7;3.5;0.2;2;2410;1.45228215767635;0.9848077;1.673648;0.9494938;1.673294;-0.8660251;0.9999995;-0.835644;1.010674;
637949719013814656;1525.8;23;7;3.5;0.2;2;3098;1.12976113621691;-0.9848078;1.673648;-0.9248682;1.599014;0.9848077;1.673648;0.9494938;1.673294;
637949719037810060;1528.199;23;7;3.5;0.2;2;2399;1.45894122551063;0.8660256;1;0.8079895;1.02647;-0.9848078;1.673648;-0.9248682;1.599014;
637949719056794332;1530.098;23;7;3.5;0.2;2;1899;1.84307530279094;-0.6427882;2.266044;-0.5966214;2.218934;0.8660256;1;0.8079895;1.02647;
637949719068787033;1531.297;23;7;3.5;0.2;2;1199;2.91909924937448;0.3420205;0.5603075;0.3308947;0.5693381;-0.6427882;2.266044;-0.5966214;2.218934;
637949719096783334;1534.097;23;7;3;0.2;1.4;1499;2.00133422281521;-0.2394138;0.8422151;-0.2349429;0.927247;0;2.2;-0.02920199;2.160599;
637949719120768731;1536.495;23;7;3;0.2;1.4;2399;1.25052105043768;0.4499513;2.036231;0.4009162;1.992522;-0.2394138;0.8422151;-0.2349429;0.927247;
637949719137987888;1538.217;23;7;3;0.2;1.4;1722;1.74216027874564;-0.6062176;1.15;-0.5909027;1.117893;0.4499513;2.036231;0.4009162;1.992522;
637949719178857084;1542.304;23;7;3;0.2;1.4;4087;0.734034744311231;0.6893654;1.621554;0.631064;1.589983;-0.6062176;1.15;-0.5909027;1.117893;
637949719196845700;1544.103;23;7;3;0.2;1.4;1799;1.66759310728182;-0.6893655;1.621553;-0.6581135;1.603881;0.6893654;1.621554;0.631064;1.589983;
637949719210838845;1545.502;23;7;3;0.2;1.4;1400;2.14285714285714;0.6062179;1.15;0.6027645;1.18501;-0.6893655;1.621553;-0.6581135;1.603881;
637949719225832223;1547.001;23;7;3;0.2;1.4;1499;2.00133422281521;-0.4499517;2.036231;-0.4416389;2.043412;0.6062179;1.15;0.6027645;1.18501;
637949719239827570;1548.401;23;7;3;0.2;1.4;1400;2.14285714285714;0.2394144;0.8422153;0.2308593;0.8891293;-0.4499517;2.036231;-0.4416389;2.043412;
637949719278911237;1552.31;23;7;2.5;0.3;1.4;2598;0.962278675904542;-0.2394138;0.8422151;-0.2352711;0.8859842;0;2.2;-0.0181722;2.150876;
637949719291914158;1553.61;23;7;2.5;0.3;1.4;1300;1.92307692307692;0.4499513;2.036231;0.4134241;1.99654;-0.2394138;0.8422151;-0.2352711;0.8859842;
637949719306907535;1555.109;23;7;2.5;0.3;1.4;1499;1.66777851901268;-0.6062176;1.15;-0.5554731;1.204685;0.4499513;2.036231;0.4134241;1.99654;
637949719319900454;1556.408;23;7;2.5;0.3;1.4;1299;1.92455735180908;0.6893654;1.621554;0.6310085;1.57625;-0.6062176;1.15;-0.5554731;1.204685;
637949719336894285;1558.107;23;7;2.5;0.3;1.4;1699;1.47145379635079;-0.6893655;1.621553;-0.5956389;1.590814;0.6893654;1.621554;0.6310085;1.57625;
637949719352897885;1559.708;23;7;2.5;0.3;1.4;1600;1.5625;0.6062179;1.15;0.4694787;1.200624;-0.6893655;1.621553;-0.5956389;1.590814;
637949719364880583;1560.906;23;7;2.5;0.3;1.4;1199;2.08507089241034;-0.4499517;2.036231;-0.3954441;2.063146;0.6062179;1.15;0.4694787;1.200624;
637949719375873057;1562.006;23;7;2.5;0.3;1.4;1099;2.27479526842584;0.2394144;0.8422153;0.1782495;0.829589;-0.4499517;2.036231;-0.3954441;2.063146;
637949719392976906;1563.716;23;7;1.5;1.1;2;711;2.10970464135021;-0.3420197;0.5603072;-0.2244655;1.020689;0;2.5;-0.04332284;2.223008;
637949719400978709;1564.516;23;7;1.5;1.1;2;800;1.875;0.6427875;2.266045;0.4012724;1.976076;-0.3420197;0.5603072;-0.2244655;1.020689;
637949719417962530;1566.215;23;7;1.5;1.1;2;1699;0.882872277810477;-0.8660251;0.9999995;-0.5521792;1.254942;0.6427875;2.266045;0.4012724;1.976076;
637949719428955006;1567.314;23;7;1.5;1.1;2;1099;1.36487716105551;0.9848077;1.673648;0.7296764;1.58349;-0.8660251;0.9999995;-0.5521792;1.254942;
637949719437957036;1568.214;23;7;1.5;1.1;2;900;1.66666666666667;-0.9848078;1.673648;-0.7263448;1.659857;0.9848077;1.673648;0.7296764;1.58349;
637949719446949061;1569.113;23;7;1.5;1.1;2;900;1.66666666666667;0.8660256;1;0.7003097;1.301662;-0.9848078;1.673648;-0.7263448;1.659857;
637949719457941529;1570.213;23;7;1.5;1.1;2;1100;1.36363636363636;-0.6427882;2.266044;-0.4436834;1.895612;0.8660256;1;0.7003097;1.301662;
637949719474945356;1571.912;23;7;1.5;1.1;2;1699;0.882872277810477;0.3420205;0.5603075;0.1447308;0.8964726;-0.6427882;2.266044;-0.4436834;1.895612;
637949719526912102;1577.11;23;7;4;0.1;1.4;1699;2.35432607416127;-0.2394138;0.8422151;-0.2209079;0.8803294;0;2.2;-0.01232162;2.178464;
637949719541901398;1578.609;23;7;4;0.1;1.4;1499;2.66844563042028;0.4499513;2.036231;0.4418941;2.021535;-0.2394138;0.8422151;-0.2209079;0.8803294;
637949719578002417;1582.218;23;7;4;0.1;1.4;3609;1.10834026045996;-0.6062176;1.15;-0.5980355;1.13848;0.4499513;2.036231;0.4418941;2.021535;
637949719595999987;1584.018;23;7;4;0.1;1.4;1800;2.22222222222222;0.6893654;1.621554;0.6852076;1.627051;-0.6062176;1.15;-0.5980355;1.13848;
637949719609983133;1585.417;23;7;4;0.1;1.4;1399;2.85918513223731;-0.6893655;1.621553;-0.681515;1.615604;0.6893654;1.621554;0.6852076;1.627051;
637949719625976732;1587.016;23;7;4;0.1;1.4;1599;2.50156347717323;0.6062179;1.15;0.6082515;1.173079;-0.6893655;1.621553;-0.681515;1.615604;
637949719654963255;1589.915;23;7;4;0.1;1.4;2899;1.37978613314936;-0.4499517;2.036231;-0.4413007;2.002136;0.6062179;1.15;0.6082515;1.173079;
637949719673277378;1591.754;23;7;4;0.1;1.4;1839;2.17509516041327;0.2394144;0.8422153;0.285745;0.8331817;-0.4499517;2.036231;-0.4413007;2.002136;
637949719698052955;1594.224;23;7;2;0.6;1.8;1310;1.52671755725191;-0.3078177;0.6542765;-0.2768243;0.8929226;0;2.4;-0.02448192;2.299079;
637949719711055881;1595.524;23;7;2;0.6;1.8;1300;1.53846153846154;0.5785087;2.18944;0.459342;2.198944;-0.3078177;0.6542765;-0.2768243;0.8929226;
637949719728039705;1597.222;23;7;2;0.6;1.8;1699;1.17716303708064;-0.7794226;1.05;-0.6831142;1.108541;0.5785087;2.18944;0.459342;2.198944;
637949719743033079;1598.722;23;7;2;0.6;1.8;1500;1.33333333333333;0.8863269;1.656283;0.7219549;1.618645;-0.7794226;1.05;-0.6831142;1.108541;
637949719763017576;1600.721;23;7;2;0.6;1.8;1998;1.001001001001;-0.8863271;1.656283;-0.7982789;1.631358;0.8863269;1.656283;0.7219549;1.618645;
637949719784022306;1602.82;23;7;2;0.6;1.8;2099;0.952834683182468;0.779423;1.05;0.5435674;1.09764;-0.8863271;1.656283;-0.7982789;1.631358;
637949719825991749;1607.018;23;7;2;0.6;1.8;4198;0.476417341591234;-0.5785094;2.18944;-0.4916192;1.91735;0.779423;1.05;0.5435674;1.09764;
637949719837994451;1608.217;23;7;2;0.6;1.8;1199;1.66805671392827;0.3078185;0.6542768;0.265227;0.8554726;-0.5785094;2.18944;-0.4916192;1.91735;
