637949728079834053;153.6535;24;0;3.5;0.2;2;1599;2.18886804252658;-0.3420197;0.5603072;-0.3565758;0.6112268;0;2.5;0.02815027;2.435929;
637949728092937000;154.9644;24;0;3.5;0.2;2;1311;2.6697177726926;0.6427875;2.266045;0.655883;2.236641;-0.3420197;0.5603072;-0.3565758;0.6112268;
637949728104929700;156.1638;24;0;3.5;0.2;2;1199;2.91909924937448;-0.8660251;0.9999995;-0.8139694;1.034647;0.6427875;2.266045;0.655883;2.236641;
637949728117925914;157.4629;24;0;3.5;0.2;2;1299;2.69438029253272;0.9848077;1.673648;0.9863381;1.666721;-0.8660251;0.9999995;-0.8139694;1.034647;
637949728130917055;158.7623;24;0;3.5;0.2;2;1299;2.69438029253272;-0.9848078;1.673648;-0.9429585;1.651873;0.9848077;1.673648;0.9863381;1.666721;
637949728143907535;160.0618;24;0;3.5;0.2;2;1299;2.69438029253272;0.8660256;1;0.7819742;1.036225;-0.9848078;1.673648;-0.9429585;1.651873;
637949728157910689;161.4615;24;0;3.5;0.2;2;1400;2.5;-0.6427882;2.266044;-0.5784866;2.196928;0.8660256;1;0.7819742;1.036225;
637949728168903161;162.5607;24;0;3.5;0.2;2;1099;3.18471337579618;0.3420205;0.5603075;0.3376266;0.6296722;-0.6427882;2.266044;-0.5784866;2.196928;
637949728184886049;164.1599;24;0;2;0.6;1.8;700;2.85714285714286;-0.3078177;0.6542765;-0.386748;0.6541538;0;2.4;0.02733404;2.300125;
637949728192889913;164.9596;24;0;2;0.6;1.8;800;2.5;0.5785087;2.18944;0.6847529;2.027158;-0.3078177;0.6542765;-0.386748;0.6541538;
637949728200882147;165.7593;24;0;2;0.6;1.8;800;2.5;-0.7794226;1.05;-1.021325;0.9634053;0.5785087;2.18944;0.6847529;2.027158;
637949728209882675;166.6586;24;0;2;0.6;1.8;899;2.22469410456062;0.8863269;1.656283;1.018967;1.56853;-0.7794226;1.05;-1.021325;0.9634053;
637949728223871237;168.0581;24;0;2;0.6;1.8;1399;1.42959256611866;-0.8863271;1.656283;-0.6895964;1.655617;0.8863269;1.656283;1.018967;1.56853;
637949728232979707;168.9688;24;0;2;0.6;1.8;911;2.1953896816685;0.779423;1.05;0.7874643;1.163566;-0.8863271;1.656283;-0.6895964;1.655617;
637949728240981068;169.7683;24;0;2;0.6;1.8;799;2.50312891113892;-0.5785094;2.18944;-0.4390302;2.113664;0.779423;1.05;0.7874643;1.163566;
637949728248970984;170.568;24;0;2;0.6;1.8;800;2.5;0.3078185;0.6542768;0.3432367;0.7802725;-0.5785094;2.18944;-0.4390302;2.113664;
637949728282220465;173.9005;24;0;4.5;0.1;2.2;1999;2.25112556278139;-0.3762217;0.4663379;-0.409153;0.5037409;0;2.6;0.02611515;2.561796;
637949728318049679;177.4762;24;0;4.5;0.1;2.2;3576;1.25838926174497;0.7070663;2.342649;0.7127512;2.335995;-0.3762217;0.4663379;-0.409153;0.5037409;
637949728333049188;178.9754;24;0;4.5;0.1;2.2;1499;3.00200133422282;-0.9526277;0.9499994;-0.9191185;0.9729075;0.7070663;2.342649;0.7127512;2.335995;
637949728357037373;181.3739;24;0;4.5;0.1;2.2;2399;1.87578157565652;1.083289;1.691013;1.049647;1.720627;-0.9526277;0.9499994;-0.9191185;0.9729075;
637949728376021645;183.2731;24;0;4.5;0.1;2.2;1899;2.3696682464455;-1.083289;1.691012;-1.042337;1.67276;1.083289;1.691013;1.049647;1.720627;
637949728395025921;185.1729;24;0;4.5;0.1;2.2;1900;2.36842105263158;0.9526281;0.9500003;0.9126406;0.9796332;-1.083289;1.691012;-1.042337;1.67276;
637949728409009068;186.5718;24;0;4.5;0.1;2.2;1399;3.21658327376698;-0.7070671;2.342648;-0.6907281;2.308818;0.9526281;0.9500003;0.9126406;0.9796332;
637949728436995364;189.3703;24;0;4.5;0.1;2.2;2799;1.60771704180064;0.3762226;0.4663382;0.3462439;0.4844798;-0.7070671;2.342648;-0.6907281;2.308818;
637949728456099669;191.2808;24;0;1.5;1.1;2;811;1.84956843403206;-0.3420197;0.5603072;-0.3681398;0.7733557;0;2.5;0.06755491;2.189004;
637949728465101694;192.1805;24;0;1.5;1.1;2;900;1.66666666666667;0.6427875;2.266045;0.5390336;1.990222;-0.3420197;0.5603072;-0.3681398;0.7733557;
637949728472093267;192.8804;24;0;1.5;1.1;2;700;2.14285714285714;-0.8660251;0.9999995;-0.7693893;1.230567;0.6427875;2.266045;0.5390336;1.990222;
637949728479084843;193.5796;24;0;1.5;1.1;2;699;2.14592274678112;0.9848077;1.673648;0.8939616;1.588149;-0.8660251;0.9999995;-0.7693893;1.230567;
637949728486086417;194.2796;24;0;1.5;1.1;2;700;2.14285714285714;-0.9848078;1.673648;-0.6887733;1.660879;0.9848077;1.673648;0.8939616;1.588149;
637949728493077993;194.9787;24;0;1.5;1.1;2;699;2.14592274678112;0.8660256;1;0.703504;1.119748;-0.9848078;1.673648;-0.6887733;1.660879;
637949728500079567;195.679;24;0;1.5;1.1;2;700;2.14285714285714;-0.6427882;2.266044;-0.5689817;2.330359;0.8660256;1;0.703504;1.119748;
637949728510081817;196.6788;24;0;1.5;1.1;2;1000;1.5;0.3420205;0.5603075;0.3195122;0.8600773;-0.6427882;2.266044;-0.5689817;2.330359;
637949728527065639;198.3777;24;0;2.5;0.3;1.4;900;2.77777777777778;-0.2394138;0.8422151;-0.1851228;0.9593432;0;2.2;0.03378575;2.105328;
637949728535067444;199.177;24;0;2.5;0.3;1.4;799;3.12891113892365;0.4499513;2.036231;0.4176317;1.936633;-0.2394138;0.8422151;-0.1851228;0.9593432;
637949728544059465;200.0764;24;0;2.5;0.3;1.4;899;2.78086763070078;-0.6062176;1.15;-0.5270407;1.164149;0.4499513;2.036231;0.4176317;1.936633;
637949728553051489;200.9761;24;0;2.5;0.3;1.4;900;2.77777777777778;0.6893654;1.621554;0.6449761;1.61053;-0.6062176;1.15;-0.5270407;1.164149;
637949728561053290;201.7758;24;0;2.5;0.3;1.4;800;3.125;-0.6893655;1.621553;-0.5628728;1.595954;0.6893654;1.621554;0.6449761;1.61053;
637949728570045316;202.6752;24;0;2.5;0.3;1.4;899;2.78086763070078;0.6062179;1.15;0.5966125;1.175333;-0.6893655;1.621553;-0.5628728;1.595954;
637949728580037563;203.675;24;0;2.5;0.3;1.4;1000;2.5;-0.4499517;2.036231;-0.37507;1.924877;0.6062179;1.15;0.5966125;1.175333;
637949728588039364;204.4746;24;0;2.5;0.3;1.4;800;3.125;0.2394144;0.8422153;0.2976768;0.8880647;-0.4499517;2.036231;-0.37507;1.924877;
637949728606023412;206.2735;24;0;3;0.2;1.4;799;3.75469336670839;-0.2394138;0.8422151;-0.2288121;0.8845531;0;2.2;0.02851824;2.131233;
637949728615135464;207.1845;24;0;3;0.2;1.4;911;3.29308452250274;0.4499513;2.036231;0.3876002;1.970788;-0.2394138;0.8422151;-0.2288121;0.8845531;
637949728624130874;208.0841;24;0;3;0.2;1.4;900;3.33333333333333;-0.6062176;1.15;-0.5385959;1.184655;0.4499513;2.036231;0.3876002;1.970788;
637949728633127021;208.9835;24;0;3;0.2;1.4;899;3.33704115684093;0.6893654;1.621554;0.637189;1.624102;-0.6062176;1.15;-0.5385959;1.184655;
637949728642119045;209.883;24;0;3;0.2;1.4;899;3.33704115684093;-0.6893655;1.621553;-0.6077567;1.57244;0.6893654;1.621554;0.637189;1.624102;
637949728652126822;210.8829;24;0;3;0.2;1.4;1000;3;0.6062179;1.15;0.5777882;1.177894;-0.6893655;1.621553;-0.6077567;1.57244;
637949728669110647;212.582;24;0;3;0.2;1.4;1699;1.76574455562095;-0.4499517;2.036231;-0.3761972;2.008996;0.6062179;1.15;0.5777882;1.177894;
637949728678222698;213.4927;24;0;3;0.2;1.4;911;3.29308452250274;0.2394144;0.8422153;0.2213228;0.902378;-0.4499517;2.036231;-0.3761972;2.008996;
637949728710209893;216.6912;24;0;4;0.1;1.4;1999;2.00100050025012;-0.2394138;0.8422151;-0.2616423;0.8670462;0;2.2;0.001966698;2.167452;
637949728731194620;218.7901;24;0;4;0.1;1.4;2099;1.90566936636494;0.4499513;2.036231;0.4298919;1.999465;-0.2394138;0.8422151;-0.2616423;0.8670462;
637949728749188669;220.5893;24;0;4;0.1;1.4;1799;2.22345747637576;-0.6062176;1.15;-0.6034193;1.166234;0.4499513;2.036231;0.4298919;1.999465;
637949728761181367;221.7888;24;0;4;0.1;1.4;1200;3.33333333333333;0.6893654;1.621554;0.6684226;1.631069;-0.6062176;1.15;-0.6034193;1.166234;
637949728785166764;224.1877;24;0;4;0.1;1.4;2399;1.66736140058358;-0.6893655;1.621553;-0.6797949;1.633016;0.6893654;1.621554;0.6684226;1.631069;
637949728804281069;226.0982;24;0;4;0.1;1.4;1910;2.09424083769634;0.6062179;1.15;0.5868631;1.172458;-0.6893655;1.621553;-0.6797949;1.633016;
637949728830256916;228.6967;24;0;4;0.1;1.4;2599;1.5390534821085;-0.4499517;2.036231;-0.4649667;2.002628;0.6062179;1.15;0.5868631;1.172458;
637949728849251193;230.596;24;0;4;0.1;1.4;1899;2.10637177461822;0.2394144;0.8422153;0.2450057;0.8558124;-0.4499517;2.036231;-0.4649667;2.002628;
637949729464404848;292.1116;24;1;4.5;0.1;2.2;1599;2.81425891181989;-0.3762217;0.4663379;-0.4043787;0.493091;0;2.6;0.003195998;2.569522;
637949729474667158;293.1453;24;1;4.5;0.1;2.2;1034;4.35203094777563;0.7070663;2.342649;0.6962835;2.294006;-0.3762217;0.4663379;-0.4043787;0.493091;
637949729485399571;294.2108;24;1;4.5;0.1;2.2;1065;4.22535211267606;-0.9526277;0.9499994;-0.9079541;0.9724396;0.7070663;2.342649;0.6962835;2.294006;
637949729509394974;296.6097;24;1;4.5;0.1;2.2;2399;1.87578157565652;1.083289;1.691013;1.063813;1.697099;-0.9526277;0.9499994;-0.9079541;0.9724396;
637949729522387898;297.9091;24;1;4.5;0.1;2.2;1299;3.46420323325635;-1.083289;1.691012;-1.061031;1.721485;1.083289;1.691013;1.063813;1.697099;
637949729537371269;299.4083;24;1;4.5;0.1;2.2;1499;3.00200133422282;0.9526281;0.9500003;0.9087658;0.9693598;-1.083289;1.691012;-1.061031;1.721485;
637949729566477821;302.3182;24;1;4.5;0.1;2.2;2910;1.54639175257732;-0.7070671;2.342648;-0.6773551;2.349185;0.9526281;0.9500003;0.9087658;0.9693598;
637949729586542339;304.317;24;1;4.5;0.1;2.2;1999;2.25112556278139;0.3762226;0.4663382;0.3605866;0.5120537;-0.7070671;2.342648;-0.6773551;2.349185;
637949729622450421;307.9156;24;1;4;0.1;1.4;1669;2.39664469742361;-0.2394138;0.8422151;-0.252197;0.8646935;0;2.2;-0.007691249;2.150926;
637949729637443793;309.4147;24;1;4;0.1;1.4;1427;2.8030833917309;0.4499513;2.036231;0.4758874;2.043185;-0.2394138;0.8422151;-0.252197;0.8646935;
637949729651439522;310.8141;24;1;4;0.1;1.4;1399;2.85918513223731;-0.6062176;1.15;-0.6300875;1.132382;0.4499513;2.036231;0.4758874;2.043185;
637949729663422227;312.0134;24;1;4;0.1;1.4;1199;3.33611342785655;0.6893654;1.621554;0.6913804;1.625157;-0.6062176;1.15;-0.6300875;1.132382;
637949729680416046;313.7126;24;1;4;0.1;1.4;1699;2.35432607416127;-0.6893655;1.621553;-0.6845768;1.631249;0.6893654;1.621554;0.6913804;1.625157;
637949729692733549;314.9514;24;1;4;0.1;1.4;1239;3.22841000807103;0.6062179;1.15;0.5611439;1.171644;-0.6893655;1.621553;-0.6845768;1.631249;
637949729703727489;316.0513;24;1;4;0.1;1.4;1100;3.63636363636364;-0.4499517;2.036231;-0.4007965;2.044056;0.6062179;1.15;0.5611439;1.171644;
637949729715510142;317.2222;24;1;4;0.1;1.4;1171;3.41588385994876;0.2394144;0.8422153;0.1999916;0.8452158;-0.4499517;2.036231;-0.4007965;2.044056;
637949729744496666;320.1207;24;1;3;0.2;1.4;1899;1.57977883096367;-0.2394138;0.8422151;-0.2301682;0.9207675;0;2.2;0.009805791;2.175961;
637949729753498694;321.0204;24;1;3;0.2;1.4;900;3.33333333333333;0.4499513;2.036231;0.4069331;1.97026;-0.2394138;0.8422151;-0.2301682;0.9207675;
637949729764491168;322.1199;24;1;3;0.2;1.4;1100;2.72727272727273;-0.6062176;1.15;-0.5815372;1.205022;0.4499513;2.036231;0.4069331;1.97026;
637949729775493647;323.2199;24;1;3;0.2;1.4;1100;2.72727272727273;0.6893654;1.621554;0.6901414;1.617353;-0.6062176;1.15;-0.5815372;1.205022;
637949729785805967;324.2583;24;1;3;0.2;1.4;1038;2.89017341040462;-0.6893655;1.621553;-0.6041175;1.570941;0.6893654;1.621554;0.6901414;1.617353;
637949729799479043;325.6185;24;1;3;0.2;1.4;1360;2.20588235294118;0.6062179;1.15;0.5484651;1.160157;-0.6893655;1.621553;-0.6041175;1.570941;
637949729813472193;327.0175;24;1;3;0.2;1.4;1399;2.14438884917798;-0.4499517;2.036231;-0.3970671;1.999354;0.6062179;1.15;0.5484651;1.160157;
637949729827465341;328.4167;24;1;3;0.2;1.4;1399;2.14438884917798;0.2394144;0.8422153;0.2140679;0.8889236;-0.4499517;2.036231;-0.3970671;1.999354;
637949729842458710;329.9162;24;1;2;0.6;1.8;700;2.85714285714286;-0.3078177;0.6542765;-0.2923147;0.8776933;0;2.4;0.05692745;2.338459;
637949729849450288;330.616;24;1;2;0.6;1.8;700;2.85714285714286;0.5785087;2.18944;0.5592688;2.068711;-0.3078177;0.6542765;-0.2923147;0.8776933;
637949729856451867;331.3156;24;1;2;0.6;1.8;700;2.85714285714286;-0.7794226;1.05;-0.82327;1.080604;0.5785087;2.18944;0.5592688;2.068711;
637949729863453442;332.0156;24;1;2;0.6;1.8;700;2.85714285714286;0.8863269;1.656283;0.7982762;1.638659;-0.7794226;1.05;-0.82327;1.080604;
637949729870555039;332.726;24;1;2;0.6;1.8;710;2.8169014084507;-0.8863271;1.656283;-0.8663207;1.546542;0.8863269;1.656283;0.7982762;1.638659;
637949729877546612;333.4256;24;1;2;0.6;1.8;700;2.85714285714286;0.779423;1.05;0.7223987;1.040257;-0.8863271;1.656283;-0.8663207;1.546542;
637949729883547968;334.0258;24;1;2;0.6;1.8;600;3.33333333333333;-0.5785094;2.18944;-0.6374798;2.097512;0.779423;1.05;0.7223987;1.040257;
637949729890549541;334.7254;24;1;2;0.6;1.8;700;2.85714285714286;0.3078185;0.6542768;0.3824726;0.7796664;-0.5785094;2.18944;-0.6374798;2.097512;
637949729905532914;336.2245;24;1;2.5;0.3;1.4;700;3.57142857142857;-0.2394138;0.8422151;-0.2228639;0.9552501;0;2.2;0.004867971;2.107851;
637949729911534261;336.8241;24;1;2.5;0.3;1.4;600;4.16666666666667;0.4499513;2.036231;0.5645758;2.104401;-0.2394138;0.8422151;-0.2228639;0.9552501;
637949729919526065;337.6237;24;1;2.5;0.3;1.4;800;3.125;-0.6062176;1.15;-0.5414958;1.215629;0.4499513;2.036231;0.5645758;2.104401;
637949729935529664;339.2234;24;1;2.5;0.3;1.4;1600;1.5625;0.6893654;1.621554;0.6438265;1.663892;-0.6062176;1.15;-0.5414958;1.215629;
637949729944521686;340.1227;24;1;2.5;0.3;1.4;899;2.78086763070078;-0.6893655;1.621553;-0.5399002;1.627722;0.6893654;1.621554;0.6438265;1.663892;
637949729951523266;340.8225;24;1;2.5;0.3;1.4;700;3.57142857142857;0.6062179;1.15;0.5528955;1.264331;-0.6893655;1.621553;-0.5399002;1.627722;
637949729960505293;341.7219;24;1;2.5;0.3;1.4;899;2.78086763070078;-0.4499517;2.036231;-0.3661903;2.016444;0.6062179;1.15;0.5528955;1.264331;
637949729967506865;342.4218;24;1;2.5;0.3;1.4;700;3.57142857142857;0.2394144;0.8422153;0.3695997;0.916123;-0.4499517;2.036231;-0.3661903;2.016444;
637949729991501414;344.8204;24;1;3.5;0.2;2;1499;2.33488992661775;-0.3420197;0.5603072;-0.3463687;0.611105;0;2.5;0.03111905;2.423791;
637949730001497473;345.82;24;1;3.5;0.2;2;1000;3.5;0.6427875;2.266045;0.6663838;2.227931;-0.3420197;0.5603072;-0.3463687;0.611105;
637949730012599979;346.9305;24;1;3.5;0.2;2;1110;3.15315315315315;-0.8660251;0.9999995;-0.8259819;0.9548808;0.6427875;2.266045;0.6663838;2.227931;
637949730030594028;348.7297;24;1;3.5;0.2;2;1799;1.94552529182879;0.9848077;1.673648;0.9454031;1.664393;-0.8660251;0.9999995;-0.8259819;0.9548808;
637949730048575149;350.5289;24;1;3.5;0.2;2;1799;1.94552529182879;-0.9848078;1.673648;-1.005573;1.642904;0.9848077;1.673648;0.9454031;1.664393;
637949730060579170;351.7284;24;1;3.5;0.2;2;1200;2.91666666666667;0.8660256;1;0.7969692;1.017379;-0.9848078;1.673648;-1.005573;1.642904;
637949730070571983;352.7279;24;1;3.5;0.2;2;1000;3.5;-0.6427882;2.266044;-0.5796415;2.24483;0.8660256;1;0.7969692;1.017379;
637949730086561565;354.3273;24;1;3.5;0.2;2;1599;2.18886804252658;0.3420205;0.5603075;0.3173614;0.6525774;-0.6427882;2.266044;-0.5796415;2.24483;
637949730098561193;355.5265;24;1;1.5;1.1;2;499;3.0060120240481;-0.3420197;0.5603072;-0.3222116;0.9009316;0;2.5;0.0330616;2.336228;
637949730104561855;356.1265;24;1;1.5;1.1;2;600;2.5;0.6427875;2.266045;0.5687066;1.979013;-0.3420197;0.5603072;-0.3222116;0.9009316;
637949730109561072;356.6264;24;1;1.5;1.1;2;500;3;-0.8660251;0.9999995;-0.6237333;1.030879;0.6427875;2.266045;0.5687066;1.979013;
637949730114551023;357.1259;24;1;1.5;1.1;2;500;3;0.9848077;1.673648;0.6207546;1.688045;-0.8660251;0.9999995;-0.6237333;1.030879;
637949730121550948;357.8258;24;1;1.5;1.1;2;700;2.14285714285714;-0.9848078;1.673648;-0.8772936;1.691349;0.9848077;1.673648;0.6207546;1.688045;
637949730126540885;358.3251;24;1;1.5;1.1;2;499;3.0060120240481;0.8660256;1;0.6531906;1.247618;-0.9848078;1.673648;-0.8772936;1.691349;
637949730132539149;358.9249;24;1;1.5;1.1;2;600;2.5;-0.6427882;2.266044;-0.5463154;2.155841;0.8660256;1;0.6531906;1.247618;
637949730138650539;359.5359;24;1;1.5;1.1;2;611;2.45499181669394;0.3420205;0.5603075;0.3841507;0.7800013;-0.6427882;2.266044;-0.5463154;2.155841;
637949730595797179;405.2482;24;2;2.5;0.3;1.4;900;2.77777777777778;-0.2394138;0.8422151;-0.1975396;0.9168205;0;2.2;-0.01429809;2.133339;
637949730603788973;406.0477;24;2;2.5;0.3;1.4;799;3.12891113892365;0.4499513;2.036231;0.4369594;1.96171;-0.2394138;0.8422151;-0.1975396;0.9168205;
637949730610780550;406.7476;24;2;2.5;0.3;1.4;700;3.57142857142857;-0.6062176;1.15;-0.7057934;1.167114;0.4499513;2.036231;0.4369594;1.96171;
637949730619772570;407.6469;24;2;2.5;0.3;1.4;899;2.78086763070078;0.6893654;1.621554;0.6086099;1.597851;-0.6062176;1.15;-0.7057934;1.167114;
637949730626784149;408.347;24;2;2.5;0.3;1.4;700;3.57142857142857;-0.6893655;1.621553;-0.6596356;1.631606;0.6893654;1.621554;0.6086099;1.597851;
637949730635776172;409.2465;24;2;2.5;0.3;1.4;899;2.78086763070078;0.6062179;1.15;0.5160757;1.12893;-0.6893655;1.621553;-0.6596356;1.631606;
637949730643767972;410.0459;24;2;2.5;0.3;1.4;799;3.12891113892365;-0.4499517;2.036231;-0.3177168;1.967418;0.6062179;1.15;0.5160757;1.12893;
637949730651769771;410.8457;24;2;2.5;0.3;1.4;800;3.125;0.2394144;0.8422153;0.2591609;0.9527482;-0.4499517;2.036231;-0.3177168;1.967418;
637949730664762696;412.1451;24;2;1.5;1.1;2;600;2.5;-0.3420197;0.5603072;-0.2451368;0.9413978;0;2.5;0.05361706;2.294738;
637949730669753820;412.6449;24;2;1.5;1.1;2;500;3;0.6427875;2.266045;0.695942;2.18209;-0.3420197;0.5603072;-0.2451368;0.9413978;
637949730676755400;413.3444;24;2;1.5;1.1;2;700;2.14285714285714;-0.8660251;0.9999995;-0.5009599;1.179157;0.6427875;2.266045;0.695942;2.18209;
637949730681746520;413.844;24;2;1.5;1.1;2;500;3;0.9848077;1.673648;0.795225;1.812216;-0.8660251;0.9999995;-0.5009599;1.179157;
637949730687747879;414.4439;24;2;1.5;1.1;2;600;2.5;-0.9848078;1.673648;-0.6545143;1.633759;0.9848077;1.673648;0.795225;1.812216;
637949730693749221;415.0437;24;2;1.5;1.1;2;600;2.5;0.8660256;1;0.7686578;1.173241;-0.9848078;1.673648;-0.6545143;1.633759;
637949730699750573;415.6437;24;2;1.5;1.1;2;600;2.5;-0.6427882;2.266044;-0.2919924;2.045685;0.8660256;1;0.7686578;1.173241;
637949730707852395;416.4541;24;2;1.5;1.1;2;810;1.85185185185185;0.3420205;0.5603075;0.3162114;0.8472158;-0.6427882;2.266044;-0.2919924;2.045685;
637949730729837343;418.6532;24;2;3.5;0.2;2;1100;3.18181818181818;-0.3420197;0.5603072;-0.3393845;0.652266;0;2.5;0.01160054;2.404776;
637949730740829816;419.7524;24;2;3.5;0.2;2;1099;3.18471337579618;0.6427875;2.266045;0.6305096;2.214341;-0.3420197;0.5603072;-0.3393845;0.652266;
637949730756823419;421.3518;24;2;3.5;0.2;2;1599;2.18886804252658;-0.8660251;0.9999995;-0.8419833;1.05554;0.6427875;2.266045;0.6305096;2.214341;
637949730766825669;422.3514;24;2;3.5;0.2;2;1000;3.5;0.9848077;1.673648;1.014635;1.684208;-0.8660251;0.9999995;-0.8419833;1.05554;
637949730775817693;423.2507;24;2;3.5;0.2;2;899;3.89321468298109;-0.9848078;1.673648;-0.900656;1.631288;0.9848077;1.673648;1.014635;1.684208;
637949730787810391;424.4505;24;2;3.5;0.2;2;1200;2.91666666666667;0.8660256;1;0.7976046;1.066799;-0.9848078;1.673648;-0.900656;1.631288;
637949730798802867;425.5497;24;2;3.5;0.2;2;1099;3.18471337579618;-0.6427882;2.266044;-0.5965553;2.221416;0.8660256;1;0.7976046;1.066799;
637949730808805120;426.5493;24;2;3.5;0.2;2;1000;3.5;0.3420205;0.5603075;0.3436915;0.6598279;-0.6427882;2.266044;-0.5965553;2.221416;
637949730844783210;430.1477;24;2;4.5;0.1;2.2;1699;2.64861683343143;-0.3762217;0.4663379;-0.3819189;0.5072505;0;2.6;-0.009955829;2.592163;
637949730856889216;431.3582;24;2;4.5;0.1;2.2;1211;3.7159372419488;0.7070663;2.342649;0.6989224;2.319391;-0.3762217;0.4663379;-0.3819189;0.5072505;
637949730878880868;433.5573;24;2;4.5;0.1;2.2;2199;2.04638472032742;-0.9526277;0.9499994;-0.9555159;0.9919346;0.7070663;2.342649;0.6989224;2.319391;
637949730891873795;434.8565;24;2;4.5;0.1;2.2;1299;3.46420323325635;1.083289;1.691013;1.039165;1.688257;-0.9526277;0.9499994;-0.9555159;0.9919346;
637949730910871995;436.7559;24;2;4.5;0.1;2.2;1899;2.3696682464455;-1.083289;1.691012;-1.058064;1.702401;1.083289;1.691013;1.039165;1.688257;
637949730925861825;438.2554;24;2;4.5;0.1;2.2;1500;3;0.9526281;0.9500003;0.9294063;0.968724;-1.083289;1.691012;-1.058064;1.702401;
637949730937851934;439.4546;24;2;4.5;0.1;2.2;1199;3.75312760633862;-0.7070671;2.342648;-0.659871;2.326499;0.9526281;0.9500003;0.9294063;0.968724;
637949730967943355;442.464;24;2;4.5;0.1;2.2;3009;1.49551345962114;0.3762226;0.4663382;0.4010693;0.5053718;-0.7070671;2.342648;-0.659871;2.326499;
637949730988934245;444.5631;24;2;3;0.2;1.4;999;3.003003003003;-0.2394138;0.8422151;-0.2083559;0.8907219;0;2.2;0.05792131;2.125705;
637949731005933146;446.2626;24;2;3;0.2;1.4;1699;1.76574455562095;0.4499513;2.036231;0.4197311;2.100287;-0.2394138;0.8422151;-0.2083559;0.8907219;
637949731016917177;447.3625;24;2;3;0.2;1.4;1100;2.72727272727273;-0.6062176;1.15;-0.5836577;1.166887;0.4499513;2.036231;0.4197311;2.100287;
637949731025909201;448.2615;24;2;3;0.2;1.4;899;3.33704115684093;0.6893654;1.621554;0.6823272;1.670581;-0.6062176;1.15;-0.5836577;1.166887;
637949731034899711;449.1609;24;2;3;0.2;1.4;899;3.33704115684093;-0.6893655;1.621553;-0.6997523;1.635818;0.6893654;1.621554;0.6823272;1.670581;
637949731043007982;449.9718;24;2;3;0.2;1.4;811;3.69913686806412;0.6062179;1.15;0.6294867;1.159624;-0.6893655;1.621553;-0.6997523;1.635818;
637949731060008212;451.6709;24;2;3;0.2;1.4;1699;1.76574455562095;-0.4499517;2.036231;-0.4094666;1.972498;0.6062179;1.15;0.6294867;1.159624;
637949731069999660;452.6707;24;2;3;0.2;1.4;1000;3;0.2394144;0.8422153;0.2248725;0.9092709;-0.4499517;2.036231;-0.4094666;1.972498;
637949731097985465;455.4691;24;2;4;0.1;1.4;1599;2.50156347717323;-0.2394138;0.8422151;-0.2123901;0.8842913;0;2.2;0.008113436;2.18035;
637949731115979514;457.2682;24;2;4;0.1;1.4;1799;2.22345747637576;0.4499513;2.036231;0.415119;2.021593;-0.2394138;0.8422151;-0.2123901;0.8842913;
637949731129962661;458.6673;24;2;4;0.1;1.4;1399;2.85918513223731;-0.6062176;1.15;-0.5891891;1.183439;0.4499513;2.036231;0.415119;2.021593;
637949731139964912;459.6672;24;2;4;0.1;1.4;1000;4;0.6893654;1.621554;0.6440786;1.62617;-0.6062176;1.15;-0.5891891;1.183439;
637949731150957389;460.7668;24;2;4;0.1;1.4;1100;3.63636363636364;-0.6893655;1.621553;-0.6547266;1.622444;0.6893654;1.621554;0.6440786;1.62617;
637949731174052586;463.0765;24;2;4;0.1;1.4;2310;1.73160173160173;0.6062179;1.15;0.5989171;1.131876;-0.6893655;1.621553;-0.6547266;1.622444;
637949731188055738;464.4765;24;2;4;0.1;1.4;1400;2.85714285714286;-0.4499517;2.036231;-0.4162143;2.008903;0.6062179;1.15;0.5989171;1.131876;
637949731203039109;465.9751;24;2;4;0.1;1.4;1499;2.66844563042028;0.2394144;0.8422153;0.2368346;0.889226;-0.4499517;2.036231;-0.4162143;2.008903;
637949731218032483;467.4744;24;2;2;0.6;1.8;699;2.86123032904149;-0.3078177;0.6542765;-0.3259852;0.5111973;0;2.4;0.02622058;2.358739;
637949731224033835;468.0742;24;2;2;0.6;1.8;600;3.33333333333333;0.5785087;2.18944;0.4463146;2.036059;-0.3078177;0.6542765;-0.3259852;0.5111973;
637949731231035411;468.7739;24;2;2;0.6;1.8;700;2.85714285714286;-0.7794226;1.05;-0.7486285;1.224465;0.5785087;2.18944;0.4463146;2.036059;
637949731238026985;469.4736;24;2;2;0.6;1.8;700;2.85714285714286;0.8863269;1.656283;0.7982973;1.743297;-0.7794226;1.05;-0.7486285;1.224465;
637949731244028336;470.0735;24;2;2;0.6;1.8;600;3.33333333333333;-0.8863271;1.656283;-0.7388106;1.722778;0.8863269;1.656283;0.7982973;1.743297;
637949731250019683;470.6731;24;2;2;0.6;1.8;600;3.33333333333333;0.779423;1.05;0.6687121;1.208575;-0.8863271;1.656283;-0.7388106;1.722778;
637949731258021483;471.4725;24;2;2;0.6;1.8;799;2.50312891113892;-0.5785094;2.18944;-0.4039364;2.045399;0.779423;1.05;0.6687121;1.208575;
637949731264012833;472.0724;24;2;2;0.6;1.8;600;3.33333333333333;0.3078185;0.6542768;0.2563899;0.8740966;-0.5785094;2.18944;-0.4039364;2.045399;
637949731724141899;518.0847;24;3;4.5;0.1;2.2;1700;2.64705882352941;-0.3762217;0.4663379;-0.3542898;0.4921178;0;2.6;0.0002100044;2.564831;
637949731736239862;519.295;24;3;4.5;0.1;2.2;1210;3.71900826446281;0.7070663;2.342649;0.7396701;2.312966;-0.3762217;0.4663379;-0.3542898;0.4921178;
637949731748242564;520.4946;24;3;4.5;0.1;2.2;1200;3.75;-0.9526277;0.9499994;-0.91616;0.9750342;0.7070663;2.342649;0.7396701;2.312966;
637949731761235488;521.7938;24;3;4.5;0.1;2.2;1299;3.46420323325635;1.083289;1.691013;1.106972;1.682767;-0.9526277;0.9499994;-0.91616;0.9750342;
637949731779226169;523.593;24;3;4.5;0.1;2.2;1799;2.50138966092273;-1.083289;1.691012;-1.067675;1.679196;1.083289;1.691013;1.106972;1.682767;
637949731793210278;524.992;24;3;4.5;0.1;2.2;1399;3.21658327376698;0.9526281;0.9500003;0.9284015;0.9611965;-1.083289;1.691012;-1.067675;1.679196;
637949731813211782;526.9915;24;3;4.5;0.1;2.2;2000;2.25;-0.7070671;2.342648;-0.7067225;2.341373;0.9526281;0.9500003;0.9284015;0.9611965;
637949731841191624;529.7902;24;3;4.5;0.1;2.2;2799;1.60771704180064;0.3762226;0.4663382;0.3458384;0.4547815;-0.7070671;2.342648;-0.7067225;2.341373;
637949731858297643;531.5006;24;3;3.5;0.2;2;800;4.375;-0.3420197;0.5603072;-0.3315102;0.65617;0;2.5;-0.02236867;2.412095;
637949731867289666;532.4;24;3;3.5;0.2;2;899;3.89321468298109;0.6427875;2.266045;0.6296431;2.24755;-0.3420197;0.5603072;-0.3315102;0.65617;
637949731882293042;533.8996;24;3;3.5;0.2;2;1500;2.33333333333333;-0.8660251;0.9999995;-0.8615422;1.043085;0.6427875;2.266045;0.6296431;2.24755;
637949731892285293;534.8987;24;3;3.5;0.2;2;999;3.5035035035035;0.9848077;1.673648;1.036099;1.672254;-0.8660251;0.9999995;-0.8615422;1.043085;
637949731900277094;535.6985;24;3;3.5;0.2;2;800;4.375;-0.9848078;1.673648;-0.9586011;1.633357;0.9848077;1.673648;1.036099;1.672254;
637949731913270013;536.998;24;3;3.5;0.2;2;1299;2.69438029253272;0.8660256;1;0.8438057;1.043676;-0.9848078;1.673648;-0.9586011;1.633357;
637949731922272043;537.8974;24;3;3.5;0.2;2;899;3.89321468298109;-0.6427882;2.266044;-0.5832424;2.272626;0.8660256;1;0.8438057;1.043676;
637949731932264291;538.8968;24;3;3.5;0.2;2;999;3.5035035035035;0.3420205;0.5603075;0.3765807;0.6455547;-0.6427882;2.266044;-0.5832424;2.272626;
637949731945267217;540.1969;24;3;1.5;1.1;2;700;2.14285714285714;-0.3420197;0.5603072;-0.191724;0.8777912;0;2.5;0.0174164;2.291201;
637949731952248790;540.8958;24;3;1.5;1.1;2;699;2.14592274678112;0.6427875;2.266045;0.5140452;2.186054;-0.3420197;0.5603072;-0.191724;0.8777912;
637949731957249915;541.3958;24;3;1.5;1.1;2;500;3;-0.8660251;0.9999995;-0.6439595;1.154918;0.6427875;2.266045;0.5140452;2.186054;
637949731962251040;541.8956;24;3;1.5;1.1;2;500;3;0.9848077;1.673648;0.7487856;1.654567;-0.8660251;0.9999995;-0.6439595;1.154918;
637949731967252168;542.3954;24;3;1.5;1.1;2;500;3;-0.9848078;1.673648;-0.493365;1.669209;0.9848077;1.673648;0.7487856;1.654567;
637949731973243515;542.9951;24;3;1.5;1.1;2;600;2.5;0.8660256;1;0.4645503;1.182446;-0.9848078;1.673648;-0.493365;1.669209;
637949731979244866;543.5951;24;3;1.5;1.1;2;600;2.5;-0.6427882;2.266044;-0.3952451;2.117898;0.8660256;1;0.4645503;1.182446;
637949731984235989;544.0945;24;3;1.5;1.1;2;499;3.0060120240481;0.3420205;0.5603075;0.3936589;0.8203341;-0.6427882;2.266044;-0.3952451;2.117898;
637949732009341641;546.6044;24;3;2.5;0.3;1.4;1799;1.38966092273485;-0.2394138;0.8422151;-0.2602622;0.8788587;0;2.2;-0.05520112;2.195405;
637949732021334338;547.804;24;3;2.5;0.3;1.4;1200;2.08333333333333;0.4499513;2.036231;0.3490691;1.968315;-0.2394138;0.8422151;-0.2602622;0.8788587;
637949732031326590;548.8036;24;3;2.5;0.3;1.4;1000;2.5;-0.6062176;1.15;-0.554588;1.198425;0.4499513;2.036231;0.3490691;1.968315;
637949732039328387;549.6031;24;3;2.5;0.3;1.4;799;3.12891113892365;0.6893654;1.621554;0.6257166;1.578158;-0.6062176;1.15;-0.554588;1.198425;
637949732045319739;550.203;24;3;2.5;0.3;1.4;600;4.16666666666667;-0.6893655;1.621553;-0.6333853;1.542597;0.6893654;1.621554;0.6257166;1.578158;
637949732053321534;551.0026;24;3;2.5;0.3;1.4;800;3.125;0.6062179;1.15;0.6775169;1.18924;-0.6893655;1.621553;-0.6333853;1.542597;
637949732062313562;551.9022;24;3;2.5;0.3;1.4;900;2.77777777777778;-0.4499517;2.036231;-0.4105025;1.913234;0.6062179;1.15;0.6775169;1.18924;
637949732071305585;552.8016;24;3;2.5;0.3;1.4;899;2.78086763070078;0.2394144;0.8422153;0.312302;0.838055;-0.4499517;2.036231;-0.4105025;1.913234;
637949732089299634;554.6005;24;3;3;0.2;1.4;999;3.003003003003;-0.2394138;0.8422151;-0.197442;0.9168401;0;2.2;-0.01576662;2.185184;
637949732099291885;555.6002;24;3;3;0.2;1.4;1000;3;0.4499513;2.036231;0.4534328;2.001074;-0.2394138;0.8422151;-0.197442;0.9168401;
637949732107293685;556.4;24;3;3;0.2;1.4;800;3.75;-0.6062176;1.15;-0.5625457;1.208309;0.4499513;2.036231;0.4534328;2.001074;
637949732115285486;557.1993;24;3;3;0.2;1.4;799;3.75469336670839;0.6893654;1.621554;0.7549427;1.613677;-0.6062176;1.15;-0.5625457;1.208309;
637949732124507560;558.1285;24;3;3;0.2;1.4;929;3.22927879440258;-0.6893655;1.621553;-0.6358945;1.5455;0.6893654;1.621554;0.7549427;1.613677;
637949732134279759;559.0991;24;3;3;0.2;1.4;971;3.08959835221421;0.6062179;1.15;0.5621561;1.187852;-0.6893655;1.621553;-0.6358945;1.5455;
637949732142271557;559.8983;24;3;3;0.2;1.4;799;3.75469336670839;-0.4499517;2.036231;-0.420296;1.972703;0.6062179;1.15;0.5621561;1.187852;
637949732150387319;560.7092;24;3;3;0.2;1.4;811;3.69913686806412;0.2394144;0.8422153;0.2011564;0.8987694;-0.4499517;2.036231;-0.420296;1.972703;
637949732163375438;562.0085;24;3;2;0.6;1.8;600;3.33333333333333;-0.3078177;0.6542765;-0.3353035;0.7759064;0;2.4;0.00476978;2.253476;
637949732169376779;562.6082;24;3;2;0.6;1.8;600;3.33333333333333;0.5785087;2.18944;0.4550502;1.990005;-0.3078177;0.6542765;-0.3353035;0.7759064;
637949732180369258;563.7076;24;3;2;0.6;1.8;1099;1.81983621474067;-0.7794226;1.05;-0.7097592;1.108951;0.5785087;2.18944;0.4550502;1.990005;
637949732188361057;564.5071;24;3;2;0.6;1.8;799;2.50312891113892;0.8863269;1.656283;0.649708;1.532007;-0.7794226;1.05;-0.7097592;1.108951;
637949732196638225;565.3421;24;3;2;0.6;1.8;835;2.39520958083832;-0.8863271;1.656283;-1.101967;1.507727;0.8863269;1.656283;0.649708;1.532007;
637949732208467524;566.5177;24;3;2;0.6;1.8;1176;1.70068027210884;0.779423;1.05;0.7451988;1.134532;-0.8863271;1.656283;-1.101967;1.507727;
637949732214468415;567.1172;24;3;2;0.6;1.8;599;3.33889816360601;-0.5785094;2.18944;-0.4393756;2.084255;0.779423;1.05;0.7451988;1.134532;
637949732221461698;567.8168;24;3;2;0.6;1.8;700;2.85714285714286;0.3078185;0.6542768;0.1537514;0.7787026;-0.5785094;2.18944;-0.4393756;2.084255;
637949732253448888;571.0152;24;3;4;0.1;1.4;1599;2.50156347717323;-0.2394138;0.8422151;-0.2303412;0.8848535;0;2.2;-0.0180719;2.183505;
637949732266451823;572.3156;24;3;4;0.1;1.4;1300;3.07692307692308;0.4499513;2.036231;0.424342;2.018439;-0.2394138;0.8422151;-0.2303412;0.8848535;
637949732289426995;574.6137;24;3;4;0.1;1.4;2298;1.74064403829417;-0.6062176;1.15;-0.5786022;1.143765;0.4499513;2.036231;0.424342;2.018439;
637949732301419692;575.813;24;3;4;0.1;1.4;1199;3.33611342785655;0.6893654;1.621554;0.6631214;1.609413;-0.6062176;1.15;-0.5786022;1.143765;
637949732312422164;576.9125;24;3;4;0.1;1.4;1099;3.63967242948135;-0.6893655;1.621553;-0.7092329;1.616528;0.6893654;1.621554;0.6631214;1.609413;
637949732330406216;578.7117;24;3;4;0.1;1.4;1799;2.22345747637576;0.6062179;1.15;0.5978798;1.159396;-0.6893655;1.621553;-0.7092329;1.616528;
637949732340408463;579.7114;24;3;4;0.1;1.4;1000;4;-0.4499517;2.036231;-0.4180934;2.007187;0.6062179;1.15;0.5978798;1.159396;
637949732353401390;581.0109;24;3;4;0.1;1.4;1299;3.07929176289453;0.2394144;0.8422153;0.2209152;0.8832029;-0.4499517;2.036231;-0.4180934;2.007187;
637949733587836540;704.4536;24;4;1.5;1.1;2;600;2.5;-0.3420197;0.5603072;-0.1754554;0.9078332;0;2.5;-0.07201132;2.280624;
637949733593827889;705.053;24;4;1.5;1.1;2;599;2.50417362270451;0.6427875;2.266045;0.4713597;2.05889;-0.3420197;0.5603072;-0.1754554;0.9078332;
637949733598819010;705.5529;24;4;1.5;1.1;2;500;3;-0.8660251;0.9999995;-0.6989863;1.124226;0.6427875;2.266045;0.4713597;2.05889;
637949733603820137;706.0527;24;4;1.5;1.1;2;500;3;0.9848077;1.673648;0.6698631;1.689471;-0.8660251;0.9999995;-0.6989863;1.124226;
637949733608821262;706.5524;24;4;1.5;1.1;2;500;3;-0.9848078;1.673648;-0.6952005;1.686418;0.9848077;1.673648;0.6698631;1.689471;
637949733613812385;707.052;24;4;1.5;1.1;2;500;3;0.8660256;1;0.7251694;1.328455;-0.9848078;1.673648;-0.6952005;1.686418;
637949733619813730;707.6522;24;4;1.5;1.1;2;600;2.5;-0.6427882;2.266044;-0.4385764;2.089477;0.8660256;1;0.7251694;1.328455;
637949733624804859;708.1516;24;4;1.5;1.1;2;499;3.0060120240481;0.3420205;0.5603075;0.2811155;0.87398;-0.6427882;2.266044;-0.4385764;2.089477;
637949733639808238;709.6511;24;4;2;0.6;1.8;900;2.22222222222222;-0.3078177;0.6542765;-0.3016125;0.6638882;0;2.4;0.03122542;2.366188;
637949733646799812;710.3506;24;4;2;0.6;1.8;699;2.86123032904149;0.5785087;2.18944;0.4369784;2.056138;-0.3078177;0.6542765;-0.3016125;0.6638882;
637949733652801164;710.9506;24;4;2;0.6;1.8;600;3.33333333333333;-0.7794226;1.05;-0.71336;1.057577;0.5785087;2.18944;0.4369784;2.056138;
637949733658796507;711.5499;24;4;2;0.6;1.8;599;3.33889816360601;0.8863269;1.656283;0.7722715;1.681778;-0.7794226;1.05;-0.71336;1.057577;
637949733665784576;712.2496;24;4;2;0.6;1.8;700;2.85714285714286;-0.8863271;1.656283;-0.6612956;1.590253;0.8863269;1.656283;0.7722715;1.681778;
637949733671785844;712.8494;24;4;2;0.6;1.8;600;3.33333333333333;0.779423;1.05;0.7211106;1.185209;-0.8863271;1.656283;-0.6612956;1.590253;
637949733678785568;713.5492;24;4;2;0.6;1.8;700;2.85714285714286;-0.5785094;2.18944;-0.4802445;2.090979;0.779423;1.05;0.7211106;1.185209;
637949733683784910;714.0488;24;4;2;0.6;1.8;500;4;0.3078185;0.6542768;0.4703022;0.6897299;-0.5785094;2.18944;-0.4802445;2.090979;
637949733701886053;715.8593;24;4;3.5;0.2;2;991;3.53178607467205;-0.3420197;0.5603072;-0.3059138;0.6288009;0;2.5;-0.01005971;2.410642;
637949733710888083;716.7591;24;4;3.5;0.2;2;900;3.88888888888889;0.6427875;2.266045;0.5976685;2.18714;-0.3420197;0.5603072;-0.3059138;0.6288009;
637949733730202430;718.698;24;4;3.5;0.2;2;1939;1.80505415162455;-0.8660251;0.9999995;-0.9289579;0.9507987;0.6427875;2.266045;0.5976685;2.18714;
637949733746971148;720.3681;24;4;3.5;0.2;2;1670;2.09580838323353;0.9848077;1.673648;0.9442301;1.632199;-0.8660251;0.9999995;-0.9289579;0.9507987;
637949733756975430;721.3678;24;4;3.5;0.2;2;1000;3.5;-0.9848078;1.673648;-0.9459858;1.656295;0.9848077;1.673648;0.9442301;1.632199;
637949733769959181;722.6671;24;4;3.5;0.2;2;1299;2.69438029253272;0.8660256;1;0.774359;1.039777;-0.9848078;1.673648;-0.9459858;1.656295;
637949733784957853;724.1665;24;4;3.5;0.2;2;1499;2.33488992661775;-0.6427882;2.266044;-0.643981;2.198728;0.8660256;1;0.774359;1.039777;
637949733796956403;725.3661;24;4;3.5;0.2;2;1200;2.91666666666667;0.3420205;0.5603075;0.2771125;0.602815;-0.6427882;2.266044;-0.643981;2.198728;
637949733814940446;727.1649;24;4;2.5;0.3;1.4;899;2.78086763070078;-0.2394138;0.8422151;-0.2802733;0.8801572;0;2.2;0.009297701;2.202609;
637949733824052524;728.0758;24;4;2.5;0.3;1.4;911;2.74423710208562;0.4499513;2.036231;0.3840406;2.043684;-0.2394138;0.8422151;-0.2802733;0.8801572;
637949733833047794;728.9753;24;4;2.5;0.3;1.4;899;2.78086763070078;-0.6062176;1.15;-0.5629556;1.16791;0.4499513;2.036231;0.3840406;2.043684;
637949733847038218;730.3746;24;4;2.5;0.3;1.4;1399;1.78699070764832;0.6893654;1.621554;0.5829433;1.572635;-0.6062176;1.15;-0.5629556;1.16791;
637949733857037039;731.3745;24;4;2.5;0.3;1.4;1000;2.5;-0.6893655;1.621553;-0.5849273;1.593322;0.6893654;1.621554;0.5829433;1.572635;
637949733866030564;732.2737;24;4;2.5;0.3;1.4;899;2.78086763070078;0.6062179;1.15;0.7077012;1.141652;-0.6893655;1.621553;-0.5849273;1.593322;
637949733874032369;733.0735;24;4;2.5;0.3;1.4;800;3.125;-0.4499517;2.036231;-0.3662411;2.013243;0.6062179;1.15;0.7077012;1.141652;
637949733884024614;734.0731;24;4;2.5;0.3;1.4;1000;2.5;0.2394144;0.8422153;0.1820244;0.8952926;-0.4499517;2.036231;-0.3662411;2.013243;
637949733904009113;736.0721;24;4;3;0.2;1.4;1000;3;-0.2394138;0.8422151;-0.2226953;0.8918344;0;2.2;0.02921493;2.13404;
637949733913011138;736.9717;24;4;3;0.2;1.4;900;3.33333333333333;0.4499513;2.036231;0.4883398;2.02704;-0.2394138;0.8422151;-0.2226953;0.8918344;
637949733922003165;737.871;24;4;3;0.2;1.4;899;3.33704115684093;-0.6062176;1.15;-0.6177428;1.12983;0.4499513;2.036231;0.4883398;2.02704;
637949733938996989;739.5707;24;4;3;0.2;1.4;1700;1.76470588235294;0.6893654;1.621554;0.6375629;1.610008;-0.6062176;1.15;-0.6177428;1.12983;
637949733950109490;740.6813;24;4;3;0.2;1.4;1111;2.7002700270027;-0.6893655;1.621553;-0.6411415;1.543899;0.6893654;1.621554;0.6375629;1.610008;
637949733959101513;741.5806;24;4;3;0.2;1.4;899;3.33704115684093;0.6062179;1.15;0.5495132;1.142435;-0.6893655;1.621553;-0.6411415;1.543899;
637949733968093537;742.4803;24;4;3;0.2;1.4;900;3.33333333333333;-0.4499517;2.036231;-0.4705054;1.95424;0.6062179;1.15;0.5495132;1.142435;
637949733976095338;743.2799;24;4;3;0.2;1.4;800;3.75;0.2394144;0.8422153;0.2682951;0.895355;-0.4499517;2.036231;-0.4705054;1.95424;
637949733992088940;744.8792;24;4;4;0.1;1.4;800;5;-0.2394138;0.8422151;-0.2193207;0.8864145;0;2.2;0.02005345;2.163925;
637949734010072987;746.6785;24;4;4;0.1;1.4;1799;2.22345747637576;0.4499513;2.036231;0.4510085;2.038808;-0.2394138;0.8422151;-0.2193207;0.8864145;
637949734027066813;748.3773;24;4;4;0.1;1.4;1699;2.35432607416127;-0.6062176;1.15;-0.5647833;1.152568;0.4499513;2.036231;0.4510085;2.038808;
637949734043060411;749.9768;24;4;4;0.1;1.4;1599;2.50156347717323;0.6893654;1.621554;0.6549643;1.640666;-0.6062176;1.15;-0.5647833;1.152568;
637949734057053561;751.3762;24;4;4;0.1;1.4;1399;2.85918513223731;-0.6893655;1.621553;-0.6700751;1.597597;0.6893654;1.621554;0.6549643;1.640666;
637949734069046257;752.5755;24;4;4;0.1;1.4;1199;3.33611342785655;0.6062179;1.15;0.5842733;1.146935;-0.6893655;1.621553;-0.6700751;1.597597;
637949734080368807;753.7156;24;4;4;0.1;1.4;1140;3.50877192982456;-0.4499517;2.036231;-0.4207269;1.996847;0.6062179;1.15;0.5842733;1.146935;
637949734091041212;754.7744;24;4;4;0.1;1.4;1059;3.77714825306893;0.2394144;0.8422153;0.216957;0.8569174;-0.4499517;2.036231;-0.4207269;1.996847;
637949734122138211;757.8841;24;4;4.5;0.1;2.2;1699;2.64861683343143;-0.3762217;0.4663379;-0.3682782;0.5141048;0;2.6;-0.01578313;2.552646;
637949734135131136;759.1833;24;4;4.5;0.1;2.2;1299;3.46420323325635;0.7070663;2.342649;0.7327909;2.326684;-0.3762217;0.4663379;-0.3682782;0.5141048;
637949734161122031;761.7825;24;4;4.5;0.1;2.2;2599;1.73143516737207;-0.9526277;0.9499994;-0.9288946;0.9683048;0.7070663;2.342649;0.7327909;2.326684;
637949734174331477;763.111;24;4;4.5;0.1;2.2;1328;3.38855421686747;1.083289;1.691013;1.048858;1.656273;-0.9526277;0.9499994;-0.9288946;0.9683048;
637949734193105704;764.9809;24;4;4.5;0.1;2.2;1870;2.40641711229947;-1.083289;1.691012;-1.072881;1.6877;1.083289;1.691013;1.048858;1.656273;
637949734207098853;766.3801;24;4;4.5;0.1;2.2;1399;3.21658327376698;0.9526281;0.9500003;0.9425235;0.9591826;-1.083289;1.691012;-1.072881;1.6877;
637949734218088351;767.4799;24;4;4.5;0.1;2.2;1100;4.09090909090909;-0.7070671;2.342648;-0.6929845;2.31844;0.9526281;0.9500003;0.9425235;0.9591826;
637949734233078269;768.9789;24;4;4.5;0.1;2.2;1499;3.00200133422282;0.3762226;0.4663382;0.3524869;0.4786862;-0.7070671;2.342648;-0.6929845;2.31844;
637949734782383698;823.909;24;5;3.5;0.2;2;1200;2.91666666666667;-0.3420197;0.5603072;-0.3187307;0.6490164;0;2.5;0.03432894;2.562072;
637949734791380284;824.8085;24;5;3.5;0.2;2;900;3.88888888888889;0.6427875;2.266045;0.6576197;2.247746;-0.3420197;0.5603072;-0.3187307;0.6490164;
637949734802371675;825.908;24;5;3.5;0.2;2;1099;3.18471337579618;-0.8660251;0.9999995;-0.7876912;0.9725173;0.6427875;2.266045;0.6576197;2.247746;
637949734810367571;826.7077;24;5;3.5;0.2;2;800;4.375;0.9848077;1.673648;0.9670641;1.66599;-0.8660251;0.9999995;-0.7876912;0.9725173;
637949734840358233;829.7062;24;5;3.5;0.2;2;2998;1.16744496330887;-0.9848078;1.673648;-0.9848539;1.685891;0.9848077;1.673648;0.9670641;1.66599;
637949734865343858;832.2052;24;5;3.5;0.2;2;2499;1.40056022408964;0.8660256;1;0.8116606;1.043664;-0.9848078;1.673648;-0.9848539;1.685891;
637949734875346113;833.205;24;5;3.5;0.2;2;1000;3.5;-0.6427882;2.266044;-0.6279801;2.176633;0.8660256;1;0.8116606;1.043664;
637949734886448606;834.3151;24;5;3.5;0.2;2;1110;3.15315315315315;0.3420205;0.5603075;0.3380798;0.6359971;-0.6427882;2.266044;-0.6279801;2.176633;
637949734904442654;836.1145;24;5;3;0.2;1.4;900;3.33333333333333;-0.2394138;0.8422151;-0.2322799;0.9230484;0;2.2;0.0286759;2.145329;
637949734913434673;837.0141;24;5;3;0.2;1.4;900;3.33333333333333;0.4499513;2.036231;0.405786;2.01565;-0.2394138;0.8422151;-0.2322799;0.9230484;
637949734921426477;837.8136;24;5;3;0.2;1.4;799;3.75469336670839;-0.6062176;1.15;-0.5489295;1.086092;0.4499513;2.036231;0.405786;2.01565;
637949734931418731;838.813;24;5;3;0.2;1.4;999;3.003003003003;0.6893654;1.621554;0.642063;1.6399;-0.6062176;1.15;-0.5489295;1.086092;
637949734940420753;839.7126;24;5;3;0.2;1.4;900;3.33333333333333;-0.6893655;1.621553;-0.7290028;1.604703;0.6893654;1.621554;0.642063;1.6399;
637949734951413227;840.812;24;5;3;0.2;1.4;1099;2.72975432211101;0.6062179;1.15;0.6063573;1.217018;-0.6893655;1.621553;-0.7290028;1.604703;
637949734960405249;841.7117;24;5;3;0.2;1.4;900;3.33333333333333;-0.4499517;2.036231;-0.4393339;2.004969;0.6062179;1.15;0.6063573;1.217018;
637949734969407277;842.6111;24;5;3;0.2;1.4;899;3.33704115684093;0.2394144;0.8422153;0.2206026;0.9236941;-0.4499517;2.036231;-0.4393339;2.004969;
637949734992392451;844.9103;24;5;4;0.1;1.4;1499;2.66844563042028;-0.2394138;0.8422151;-0.2247728;0.8673941;0;2.2;0.01794918;2.169417;
637949735006385602;846.3096;24;5;4;0.1;1.4;1399;2.85918513223731;0.4499513;2.036231;0.4424908;1.997987;-0.2394138;0.8422151;-0.2247728;0.8673941;
637949735018378301;847.5089;24;5;4;0.1;1.4;1199;3.33611342785655;-0.6062176;1.15;-0.5828232;1.159124;0.4499513;2.036231;0.4424908;1.997987;
637949735036382352;849.3085;24;5;4;0.1;1.4;1800;2.22222222222222;0.6893654;1.621554;0.6529455;1.626587;-0.6062176;1.15;-0.5828232;1.159124;
637949735051475747;850.8185;24;5;4;0.1;1.4;1510;2.64900662251656;-0.6893655;1.621553;-0.6708437;1.627503;0.6893654;1.621554;0.6529455;1.626587;
637949735067469346;852.4176;24;5;4;0.1;1.4;1599;2.50156347717323;0.6062179;1.15;0.5847228;1.182079;-0.6893655;1.621553;-0.6708437;1.627503;
637949735086463624;854.3171;24;5;4;0.1;1.4;1900;2.10526315789474;-0.4499517;2.036231;-0.4813754;2.052456;0.6062179;1.15;0.5847228;1.182079;
637949735099456549;855.6163;24;5;4;0.1;1.4;1299;3.07929176289453;0.2394144;0.8422153;0.2310609;0.8768109;-0.4499517;2.036231;-0.4813754;2.052456;
637949735116450373;857.3159;24;5;2;0.6;1.8;900;2.22222222222222;-0.3078177;0.6542765;-0.2509077;0.8924514;0;2.4;0.04460167;2.23739;
637949735122441724;857.9152;24;5;2;0.6;1.8;599;3.33889816360601;0.5785087;2.18944;0.4616036;2.120386;-0.3078177;0.6542765;-0.2509077;0.8924514;
637949735128443073;858.5152;24;5;2;0.6;1.8;600;3.33333333333333;-0.7794226;1.05;-0.5752357;1.263054;0.5785087;2.18944;0.4616036;2.120386;
637949735136434868;859.3144;24;5;2;0.6;1.8;799;2.50312891113892;0.8863269;1.656283;0.6753325;1.663433;-0.7794226;1.05;-0.5752357;1.263054;
637949735143436448;860.0143;24;5;2;0.6;1.8;700;2.85714285714286;-0.8863271;1.656283;-0.6843131;1.649959;0.8863269;1.656283;0.6753325;1.663433;
637949735151428275;860.814;24;5;2;0.6;1.8;800;2.5;0.779423;1.05;0.6574169;1.143866;-0.8863271;1.656283;-0.6843131;1.649959;
637949735157424713;861.4136;24;5;2;0.6;1.8;600;3.33333333333333;-0.5785094;2.18944;-0.4327058;1.998667;0.779423;1.05;0.6574169;1.143866;
637949735162434162;861.9136;24;5;2;0.6;1.8;500;4;0.3078185;0.6542768;0.2428178;0.9262291;-0.5785094;2.18944;-0.4327058;1.998667;
637949735175534285;863.2239;24;5;1.5;1.1;2;611;2.45499181669394;-0.3420197;0.5603072;-0.1483027;0.8692384;0;2.5;0.08507317;2.362331;
637949735180523989;863.7236;24;5;1.5;1.1;2;500;3;0.6427875;2.266045;0.5008723;2.17281;-0.3420197;0.5603072;-0.1483027;0.8692384;
637949735187524615;864.4234;24;5;1.5;1.1;2;700;2.14285714285714;-0.8660251;0.9999995;-0.5615288;1.251268;0.6427875;2.266045;0.5008723;2.17281;
637949735193525966;865.023;24;5;1.5;1.1;2;600;2.5;0.9848077;1.673648;0.6461309;1.61884;-0.8660251;0.9999995;-0.5615288;1.251268;
637949735198517089;865.5229;24;5;1.5;1.1;2;500;3;-0.9848078;1.673648;-0.5572626;1.543481;0.9848077;1.673648;0.6461309;1.61884;
637949735205518664;866.2228;24;5;1.5;1.1;2;700;2.14285714285714;0.8660256;1;0.8161351;1.15018;-0.9848078;1.673648;-0.5572626;1.543481;
637949735221512262;867.822;24;5;1.5;1.1;2;1599;0.938086303939963;-0.6427882;2.266044;-0.4042637;2.097656;0.8660256;1;0.8161351;1.15018;
637949735227513613;868.4216;24;5;1.5;1.1;2;600;2.5;0.3420205;0.5603075;0.2462043;1.049156;-0.6427882;2.266044;-0.4042637;2.097656;
637949735262491485;871.9199;24;5;4.5;0.1;2.2;1999;2.25112556278139;-0.3762217;0.4663379;-0.3623406;0.496015;0;2.6;-0.0415043;2.582812;
637949735280485539;873.719;24;5;4.5;0.1;2.2;1799;2.50138966092273;0.7070663;2.342649;0.6850321;2.303107;-0.3762217;0.4663379;-0.3623406;0.496015;
637949735295474889;875.2184;24;5;4.5;0.1;2.2;1499;3.00200133422282;-0.9526277;0.9499994;-0.980374;0.9544712;0.7070663;2.342649;0.6850321;2.303107;
637949735318573776;877.5284;24;5;4.5;0.1;2.2;2310;1.94805194805195;1.083289;1.691013;1.087316;1.714768;-0.9526277;0.9499994;-0.980374;0.9544712;
637949735332576931;878.9281;24;5;4.5;0.1;2.2;1400;3.21428571428571;-1.083289;1.691012;-1.043867;1.679809;1.083289;1.691013;1.087316;1.714768;
637949735351557686;880.827;24;5;4.5;0.1;2.2;1899;2.3696682464455;0.9526281;0.9500003;0.903037;0.9514781;-1.083289;1.691012;-1.043867;1.679809;
637949735370554464;882.7258;24;5;4.5;0.1;2.2;1899;2.3696682464455;-0.7070671;2.342648;-0.7381837;2.315343;0.9526281;0.9500003;0.903037;0.9514781;
637949735392539412;884.925;24;5;4.5;0.1;2.2;2199;2.04638472032742;0.3762226;0.4663382;0.3759668;0.4864832;-0.7070671;2.342648;-0.7381837;2.315343;
637949735410533463;886.7241;24;5;2.5;0.3;1.4;900;2.77777777777778;-0.2394138;0.8422151;-0.1954133;0.9762757;0;2.2;-0.02032833;2.256407;
637949735418525260;887.5236;24;5;2.5;0.3;1.4;800;3.125;0.4499513;2.036231;0.4047852;1.988777;-0.2394138;0.8422151;-0.1954133;0.9762757;
637949735430808025;888.7582;24;5;2.5;0.3;1.4;1235;2.02429149797571;-0.6062176;1.15;-0.488395;1.235429;0.4499513;2.036231;0.4047852;1.988777;
637949735440640240;889.7343;24;5;2.5;0.3;1.4;976;2.56147540983607;0.6893654;1.621554;0.5836565;1.592552;-0.6062176;1.15;-0.488395;1.235429;
637949735447631812;890.4336;24;5;2.5;0.3;1.4;699;3.57653791130186;-0.6893655;1.621553;-0.6108209;1.584774;0.6893654;1.621554;0.5836565;1.592552;
637949735453623159;891.0333;24;5;2.5;0.3;1.4;600;4.16666666666667;0.6062179;1.15;0.5814671;1.134523;-0.6893655;1.621553;-0.6108209;1.584774;
637949735477618562;893.4322;24;5;2.5;0.3;1.4;2399;1.04210087536474;-0.4499517;2.036231;-0.4215649;1.990855;0.6062179;1.15;0.5814671;1.134523;
637949735485610359;894.2319;24;5;2.5;0.3;1.4;800;3.125;0.2394144;0.8422153;0.1955671;0.9252696;-0.4499517;2.036231;-0.4215649;1.990855;
637949736072783376;952.9489;24;6;2;0.6;1.8;700;2.85714285714286;-0.3078177;0.6542765;-0.2941186;0.801628;0;2.4;0.01657246;2.318712;
637949736078778481;953.5485;24;6;2;0.6;1.8;600;3.33333333333333;0.5785087;2.18944;0.5100092;2.262092;-0.3078177;0.6542765;-0.2941186;0.801628;
637949736084779832;954.1484;24;6;2;0.6;1.8;600;3.33333333333333;-0.7794226;1.05;-0.6905984;1.069122;0.5785087;2.18944;0.5100092;2.262092;
637949736089770954;954.6481;24;6;2;0.6;1.8;500;4;0.8863269;1.656283;0.791774;1.74475;-0.7794226;1.05;-0.6905984;1.069122;
637949736095772305;955.248;24;6;2;0.6;1.8;600;3.33333333333333;-0.8863271;1.656283;-0.6810751;1.635093;0.8863269;1.656283;0.791774;1.74475;
637949736102763878;955.9475;24;6;2;0.6;1.8;700;2.85714285714286;0.779423;1.05;0.8753534;1.225549;-0.8863271;1.656283;-0.6810751;1.635093;
637949736107765004;956.4472;24;6;2;0.6;1.8;500;4;-0.5785094;2.18944;-0.4533613;2.112969;0.779423;1.05;0.8753534;1.225549;
637949736113766355;957.0469;24;6;2;0.6;1.8;600;3.33333333333333;0.3078185;0.6542768;0.2668178;0.8546088;-0.5785094;2.18944;-0.4533613;2.112969;
637949736126751787;958.3463;24;6;3;0.2;1.4;599;5.00834724540901;-0.2394138;0.8422151;-0.2421245;0.8149856;0;2.2;0.01704153;2.128119;
637949736143750269;960.0455;24;6;3;0.2;1.4;1699;1.76574455562095;0.4499513;2.036231;0.4936298;2.016881;-0.2394138;0.8422151;-0.2421245;0.8149856;
637949736155742969;961.2449;24;6;3;0.2;1.4;1199;2.50208507089241;-0.6062176;1.15;-0.5466447;1.119563;0.4499513;2.036231;0.4936298;2.016881;
637949736163734767;962.0445;24;6;3;0.2;1.4;800;3.75;0.6893654;1.621554;0.6312695;1.648677;-0.6062176;1.15;-0.5466447;1.119563;
637949736177727912;963.4438;24;6;3;0.2;1.4;1399;2.14438884917798;-0.6893655;1.621553;-0.6588684;1.633358;0.6893654;1.621554;0.6312695;1.648677;
637949736186729946;964.3435;24;6;3;0.2;1.4;900;3.33333333333333;0.6062179;1.15;0.6334661;1.212958;-0.6893655;1.621553;-0.6588684;1.633358;
637949736193721517;965.0431;24;6;3;0.2;1.4;700;4.28571428571429;-0.4499517;2.036231;-0.4315284;2.01731;0.6062179;1.15;0.6334661;1.212958;
637949736214826266;967.1531;24;6;3;0.2;1.4;2110;1.4218009478673;0.2394144;0.8422153;0.2093441;0.9096948;-0.4499517;2.036231;-0.4315284;2.01731;
637949736236821220;969.3525;24;6;3.5;0.2;2;1300;2.69230769230769;-0.3420197;0.5603072;-0.3195928;0.5484488;0;2.5;0.05884516;2.459188;
637949736248813912;970.5519;24;6;3.5;0.2;2;1199;2.91909924937448;0.6427875;2.266045;0.6093755;2.178567;-0.3420197;0.5603072;-0.3195928;0.5484488;
637949736260806619;971.7514;24;6;3.5;0.2;2;1200;2.91666666666667;-0.8660251;0.9999995;-0.8240498;1.0892;0.6427875;2.266045;0.6093755;2.178567;
637949736270798869;972.7509;24;6;3.5;0.2;2;999;3.5035035035035;0.9848077;1.673648;0.9653693;1.708824;-0.8660251;0.9999995;-0.8240498;1.0892;
637949736282801566;973.9506;24;6;3.5;0.2;2;1200;2.91666666666667;-0.9848078;1.673648;-0.8882579;1.662016;0.9848077;1.673648;0.9653693;1.708824;
637949736291783587;974.8495;24;6;3.5;0.2;2;899;3.89321468298109;0.8660256;1;0.8447689;1.014473;-0.9848078;1.673648;-0.8882579;1.662016;
637949736307787189;976.449;24;6;3.5;0.2;2;1599;2.18886804252658;-0.6427882;2.266044;-0.5889478;2.217479;0.8660256;1;0.8447689;1.014473;
637949736320770109;977.7482;24;6;3.5;0.2;2;1299;2.69438029253272;0.3420205;0.5603075;0.2972227;0.6211483;-0.6427882;2.266044;-0.5889478;2.217479;
637949736332772813;978.9479;24;6;1.5;1.1;2;599;2.50417362270451;-0.3420197;0.5603072;-0.2650235;0.9275664;0;2.5;-0.03906409;2.420183;
637949736338764164;979.5476;24;6;1.5;1.1;2;600;2.5;0.6427875;2.266045;0.5501275;2.298589;-0.3420197;0.5603072;-0.2650235;0.9275664;
637949736343775289;980.0483;24;6;1.5;1.1;2;501;2.9940119760479;-0.8660251;0.9999995;-0.7294127;0.9789159;0.6427875;2.266045;0.5501275;2.298589;
637949736348766413;980.5471;24;6;1.5;1.1;2;499;3.0060120240481;0.9848077;1.673648;0.5954073;1.598321;-0.8660251;0.9999995;-0.7294127;0.9789159;
637949736354767766;981.147;24;6;1.5;1.1;2;600;2.5;-0.9848078;1.673648;-0.6944465;1.536746;0.9848077;1.673648;0.5954073;1.598321;
637949736360759112;981.7466;24;6;1.5;1.1;2;600;2.5;0.8660256;1;0.6663822;1.293986;-0.9848078;1.673648;-0.6944465;1.536746;
637949736365760239;982.2465;24;6;1.5;1.1;2;500;3;-0.6427882;2.266044;-0.4851581;2.09923;0.8660256;1;0.6663822;1.293986;
637949736371751587;982.8461;24;6;1.5;1.1;2;600;2.5;0.3420205;0.5603075;0.3613144;0.962015;-0.6427882;2.266044;-0.4851581;2.09923;
637949736403848811;986.0557;24;6;4;0.1;1.4;2299;1.73988690735102;-0.2394138;0.8422151;-0.2575876;0.8520473;0;2.2;-0.006742779;2.162875;
637949736415841512;987.2553;24;6;4;0.1;1.4;1200;3.33333333333333;0.4499513;2.036231;0.4302914;2.021072;-0.2394138;0.8422151;-0.2575876;0.8520473;
637949736425843762;988.2547;24;6;4;0.1;1.4;999;4.004004004004;-0.6062176;1.15;-0.5795992;1.191854;0.4499513;2.036231;0.4302914;2.021072;
637949736436830210;989.3541;24;6;4;0.1;1.4;1099;3.63967242948135;0.6893654;1.621554;0.7036896;1.665365;-0.6062176;1.15;-0.5795992;1.191854;
637949736452834394;990.9536;24;6;4;0.1;1.4;1600;2.5;-0.6893655;1.621553;-0.7128779;1.619932;0.6893654;1.621554;0.7036896;1.665365;
637949736464827094;992.153;24;6;4;0.1;1.4;1199;3.33611342785655;0.6062179;1.15;0.5632296;1.154354;-0.6893655;1.621553;-0.7128779;1.619932;
637949736486812035;994.3517;24;6;4;0.1;1.4;2199;1.81900864029104;-0.4499517;2.036231;-0.4520067;2.00346;0.6062179;1.15;0.5632296;1.154354;
637949736499804966;995.6516;24;6;4;0.1;1.4;1300;3.07692307692308;0.2394144;0.8422153;0.2365879;0.8870761;-0.4499517;2.036231;-0.4520067;2.00346;
637949736516798792;997.3507;24;6;2.5;0.3;1.4;900;2.77777777777778;-0.2394138;0.8422151;-0.1895976;0.9494348;0;2.2;0.004247569;2.213933;
637949736523900387;998.0612;24;6;2.5;0.3;1.4;710;3.52112676056338;0.4499513;2.036231;0.3806174;1.9503;-0.2394138;0.8422151;-0.1895976;0.9494348;
637949736530901964;998.761;24;6;2.5;0.3;1.4;700;3.57142857142857;-0.6062176;1.15;-0.5618898;1.028809;0.4499513;2.036231;0.3806174;1.9503;
637949736545895341;1000.26;24;6;2.5;0.3;1.4;1499;1.66777851901268;0.6893654;1.621554;0.608638;1.632336;-0.6062176;1.15;-0.5618898;1.028809;
637949736560208558;1001.699;24;6;2.5;0.3;1.4;1438;1.73852573018081;-0.6893655;1.621553;-0.5431896;1.589108;0.6893654;1.621554;0.608638;1.632336;
637949736568890516;1002.559;24;6;2.5;0.3;1.4;861;2.90360046457607;0.6062179;1.15;0.4764892;1.215358;-0.6893655;1.621553;-0.5431896;1.589108;
637949736577881727;1003.459;24;6;2.5;0.3;1.4;899;2.78086763070078;-0.4499517;2.036231;-0.4302004;1.996603;0.6062179;1.15;0.4764892;1.215358;
637949736584883303;1004.159;24;6;2.5;0.3;1.4;700;3.57142857142857;0.2394144;0.8422153;0.1977019;0.974899;-0.4499517;2.036231;-0.4302004;1.996603;
637949736602870873;1005.958;24;6;4.5;0.1;2.2;999;4.5045045045045;-0.3762217;0.4663379;-0.3892703;0.50609;0;2.6;-0.008974675;2.553043;
637949736613860458;1007.057;24;6;4.5;0.1;2.2;1100;4.09090909090909;0.7070663;2.342649;0.7203866;2.308235;-0.3762217;0.4663379;-0.3892703;0.50609;
637949736641965633;1009.867;24;6;4.5;0.1;2.2;2810;1.60142348754448;-0.9526277;0.9499994;-0.9268085;0.9517624;0.7070663;2.342649;0.7203866;2.308235;
637949736653958357;1011.066;24;6;4.5;0.1;2.2;1199;3.75312760633862;1.083289;1.691013;1.055891;1.70299;-0.9526277;0.9499994;-0.9268085;0.9517624;
637949736668953468;1012.566;24;6;4.5;0.1;2.2;1499;3.00200133422282;-1.083289;1.691012;-1.049536;1.708654;1.083289;1.691013;1.055891;1.70299;
637949736679945940;1013.665;24;6;4.5;0.1;2.2;1100;4.09090909090909;0.9526281;0.9500003;0.9062206;0.9498326;-1.083289;1.691012;-1.049536;1.708654;
637949736694939319;1015.164;24;6;4.5;0.1;2.2;1499;3.00200133422282;-0.7070671;2.342648;-0.7384646;2.359271;0.9526281;0.9500003;0.9062206;0.9498326;
637949736705931789;1016.264;24;6;4.5;0.1;2.2;1099;4.09463148316652;0.3762226;0.4663382;0.3553028;0.5074075;-0.7070671;2.342648;-0.7384646;2.359271;
637949737145062384;1060.177;24;7;2.5;0.3;1.4;700;3.57142857142857;-0.2394138;0.8422151;-0.2057577;0.9419862;0;2.2;0.03817512;2.19797;
637949737150063508;1060.677;24;7;2.5;0.3;1.4;500;5;0.4499513;2.036231;0.4749626;2.066519;-0.2394138;0.8422151;-0.2057577;0.9419862;
637949737157058108;1061.376;24;7;2.5;0.3;1.4;699;3.57653791130186;-0.6062176;1.15;-0.6881698;1.16659;0.4499513;2.036231;0.4749626;2.066519;
637949737164049677;1062.076;24;7;2.5;0.3;1.4;700;3.57142857142857;0.6893654;1.621554;0.7488697;1.689973;-0.6062176;1.15;-0.6881698;1.16659;
637949737180043281;1063.675;24;7;2.5;0.3;1.4;1600;1.5625;-0.6893655;1.621553;-0.5819536;1.607133;0.6893654;1.621554;0.7488697;1.689973;
637949737188035081;1064.475;24;7;2.5;0.3;1.4;799;3.12891113892365;0.6062179;1.15;0.5807947;1.251603;-0.6893655;1.621553;-0.5819536;1.607133;
637949737194036428;1065.075;24;7;2.5;0.3;1.4;600;4.16666666666667;-0.4499517;2.036231;-0.4745295;2.135521;0.6062179;1.15;0.5807947;1.251603;
637949737201028003;1065.774;24;7;2.5;0.3;1.4;699;3.57653791130186;0.2394144;0.8422153;0.2827455;0.9131225;-0.4499517;2.036231;-0.4745295;2.135521;
637949737217031606;1067.374;24;7;3;0.2;1.4;800;3.75;-0.2394138;0.8422151;-0.233074;0.9272543;0;2.2;0.03728838;2.213825;
637949737226033632;1068.273;24;7;3;0.2;1.4;900;3.33333333333333;0.4499513;2.036231;0.4422165;2.01224;-0.2394138;0.8422151;-0.233074;0.9272543;
637949737233125230;1068.984;24;7;3;0.2;1.4;710;4.22535211267606;-0.6062176;1.15;-0.5994622;1.193342;0.4499513;2.036231;0.4422165;2.01224;
637949737243127478;1069.983;24;7;3;0.2;1.4;1000;3;0.6893654;1.621554;0.7717987;1.659296;-0.6062176;1.15;-0.5994622;1.193342;
637949737258120857;1071.483;24;7;3;0.2;1.4;1499;2.00133422281521;-0.6893655;1.621553;-0.6651853;1.615064;0.6893654;1.621554;0.7717987;1.659296;
637949737266122658;1072.283;24;7;3;0.2;1.4;800;3.75;0.6062179;1.15;0.5602747;1.160155;-0.6893655;1.621553;-0.6651853;1.615064;
637949737274114455;1073.082;24;7;3;0.2;1.4;799;3.75469336670839;-0.4499517;2.036231;-0.4120873;2.054941;0.6062179;1.15;0.5602747;1.160155;
637949737287107378;1074.381;24;7;3;0.2;1.4;1299;2.3094688221709;0.2394144;0.8422153;0.2241545;0.9232478;-0.4499517;2.036231;-0.4120873;2.054941;
637949737306101657;1076.281;24;7;3.5;0.2;2;1000;3.5;-0.3420197;0.5603072;-0.3624442;0.6307446;0;2.5;-0.0006786846;2.479156;
637949737314093453;1077.08;24;7;3.5;0.2;2;800;4.375;0.6427875;2.266045;0.6298777;2.299213;-0.3420197;0.5603072;-0.3624442;0.6307446;
637949737323085478;1077.979;24;7;3.5;0.2;2;899;3.89321468298109;-0.8660251;0.9999995;-0.8523172;1.015497;0.6427875;2.266045;0.6298777;2.299213;
637949737339079074;1079.579;24;7;3.5;0.2;2;1599;2.18886804252658;0.9848077;1.673648;0.9499876;1.655816;-0.8660251;0.9999995;-0.8523172;1.015497;
637949737348081100;1080.479;24;7;3.5;0.2;2;900;3.88888888888889;-0.9848078;1.673648;-0.9083362;1.659577;0.9848077;1.673648;0.9499876;1.655816;
637949737361074025;1081.778;24;7;3.5;0.2;2;1299;2.69438029253272;0.8660256;1;0.8034035;1.06462;-0.9848078;1.673648;-0.9083362;1.659577;
637949737371066274;1082.778;24;7;3.5;0.2;2;1000;3.5;-0.6427882;2.266044;-0.6014304;2.1777;0.8660256;1;0.8034035;1.06462;
637949737381068530;1083.777;24;7;3.5;0.2;2;1000;3.5;0.3420205;0.5603075;0.3668127;0.6419842;-0.6427882;2.266044;-0.6014304;2.1777;
637949737410165075;1086.687;24;7;4.5;0.1;2.2;1499;3.00200133422282;-0.3762217;0.4663379;-0.353907;0.5026578;0;2.6;0.006098673;2.586081;
637949737425148448;1088.186;24;7;4.5;0.1;2.2;1499;3.00200133422282;0.7070663;2.342649;0.670666;2.312647;-0.3762217;0.4663379;-0.353907;0.5026578;
637949737439141596;1089.585;24;7;4.5;0.1;2.2;1399;3.21658327376698;-0.9526277;0.9499994;-0.9370991;0.9734227;0.7070663;2.342649;0.670666;2.312647;
637949737453143728;1090.985;24;7;4.5;0.1;2.2;1399;3.21658327376698;1.083289;1.691013;1.033799;1.694363;-0.9526277;0.9499994;-0.9370991;0.9734227;
637949737476128909;1093.284;24;7;4.5;0.1;2.2;2299;1.9573727707699;-1.083289;1.691012;-1.080938;1.706452;1.083289;1.691013;1.033799;1.694363;
637949737489125376;1094.583;24;7;4.5;0.1;2.2;1299;3.46420323325635;0.9526281;0.9500003;0.9109724;0.9653035;-1.083289;1.691012;-1.080938;1.706452;
637949737505118116;1096.182;24;7;4.5;0.1;2.2;1599;2.81425891181989;-0.7070671;2.342648;-0.6759254;2.330895;0.9526281;0.9500003;0.9109724;0.9653035;
637949737519108166;1097.581;24;7;4.5;0.1;2.2;1399;3.21658327376698;0.3762226;0.4663382;0.3373111;0.4489853;-0.7070671;2.342648;-0.6759254;2.330895;
637949737546204209;1100.292;24;7;1.5;1.1;2;800;1.875;-0.3420197;0.5603072;-0.3205745;1.049161;0;2.5;0.04241963;2.217484;
637949737551206845;1100.791;24;7;1.5;1.1;2;500;3;0.6427875;2.266045;0.4172823;1.944365;-0.3420197;0.5603072;-0.3205745;1.049161;
637949737558199950;1101.491;24;7;1.5;1.1;2;700;2.14285714285714;-0.8660251;0.9999995;-0.6346279;1.185109;0.6427875;2.266045;0.4172823;1.944365;
637949737564201330;1102.091;24;7;1.5;1.1;2;600;2.5;0.9848077;1.673648;0.5180194;1.504377;-0.8660251;0.9999995;-0.6346279;1.185109;
637949737570412725;1102.72;24;7;1.5;1.1;2;629;2.38473767885533;-0.9848078;1.673648;-0.43492;1.669593;0.9848077;1.673648;0.5180194;1.504377;
637949737577194257;1103.39;24;7;1.5;1.1;2;671;2.2354694485842;0.8660256;1;0.4701375;1.252156;-0.9848078;1.673648;-0.43492;1.669593;
637949737583185602;1103.99;24;7;1.5;1.1;2;599;2.50417362270451;-0.6427882;2.266044;-0.294297;2.092918;0.8660256;1;0.4701375;1.252156;
637949737589186954;1104.59;24;7;1.5;1.1;2;600;2.5;0.3420205;0.5603075;0.172055;0.8005476;-0.6427882;2.266044;-0.294297;2.092918;
637949737604190331;1106.089;24;7;2;0.6;1.8;700;2.85714285714286;-0.3078177;0.6542765;-0.3007269;0.8081303;0;2.4;0.02331124;2.300533;
637949737619183705;1107.589;24;7;2;0.6;1.8;1500;1.33333333333333;0.5785087;2.18944;0.4774429;2.05456;-0.3078177;0.6542765;-0.3007269;0.8081303;
637949737627175504;1108.388;24;7;2;0.6;1.8;799;2.50312891113892;-0.7794226;1.05;-0.7008324;1.173457;0.5785087;2.18944;0.4774429;2.05456;
637949737634167073;1109.088;24;7;2;0.6;1.8;700;2.85714285714286;0.8863269;1.656283;0.7257086;1.607713;-0.7794226;1.05;-0.7008324;1.173457;
637949737640168429;1109.687;24;7;2;0.6;1.8;600;3.33333333333333;-0.8863271;1.656283;-0.6115742;1.615558;0.8863269;1.656283;0.7257086;1.607713;
637949737648160229;1110.487;24;7;2;0.6;1.8;800;2.5;0.779423;1.05;0.5874215;1.216518;-0.8863271;1.656283;-0.6115742;1.615558;
637949737654161571;1111.087;24;7;2;0.6;1.8;600;3.33333333333333;-0.5785094;2.18944;-0.3635764;2.192793;0.779423;1.05;0.5874215;1.216518;
637949737661163154;1111.787;24;7;2;0.6;1.8;700;2.85714285714286;0.3078185;0.6542768;0.2378252;0.885017;-0.5785094;2.18944;-0.3635764;2.192793;
637949737691249925;1114.796;24;7;4;0.1;1.4;2075;1.92771084337349;-0.2394138;0.8422151;-0.2122957;0.8479352;0;2.2;0.006114438;2.154881;
637949737711244426;1116.795;24;7;4;0.1;1.4;1999;2.00100050025012;0.4499513;2.036231;0.4352389;2.021105;-0.2394138;0.8422151;-0.2122957;0.8479352;
637949737739230728;1119.594;24;7;4;0.1;1.4;2799;1.4290818149339;-0.6062176;1.15;-0.5739926;1.182018;0.4499513;2.036231;0.4352389;2.021105;
637949737751223424;1120.793;24;7;4;0.1;1.4;1199;3.33611342785655;0.6893654;1.621554;0.6537725;1.644616;-0.6062176;1.15;-0.5739926;1.182018;
637949737763216124;1121.993;24;7;4;0.1;1.4;1199;3.33611342785655;-0.6893655;1.621553;-0.6560004;1.603227;0.6893654;1.621554;0.6537725;1.644616;
637949737779209725;1123.592;24;7;4;0.1;1.4;1599;2.50156347717323;0.6062179;1.15;0.5671868;1.158251;-0.6893655;1.621553;-0.6560004;1.603227;
637949737792202648;1124.891;24;7;4;0.1;1.4;1299;3.07929176289453;-0.4499517;2.036231;-0.4079461;2.013211;0.6062179;1.15;0.5671868;1.158251;
637949737804195346;1126.091;24;7;4;0.1;1.4;1199;3.33611342785655;0.2394144;0.8422153;0.2232689;0.8760772;-0.4499517;2.036231;-0.4079461;2.013211;
