637949745176565923;185.9825;25;0;3.5;0.2;2;1200;2.91666666666667;-0.3420197;0.5603072;-0.2694141;0.6022971;0;2.5;-0.008668461;2.426629;
637949745189551909;187.2823;25;0;3.5;0.2;2;1300;2.69230769230769;0.6427875;2.266045;0.5950236;2.244189;-0.3420197;0.5603072;-0.2694141;0.6022971;
637949745201734660;188.4924;25;0;3.5;0.2;2;1210;2.89256198347107;-0.8660251;0.9999995;-0.7856837;1.025734;0.6427875;2.266045;0.5950236;2.244189;
637949745226640264;190.9914;25;0;3.5;0.2;2;2499;1.40056022408964;0.9848077;1.673648;0.9192685;1.62294;-0.8660251;0.9999995;-0.7856837;1.025734;
637949745241634704;192.4906;25;0;3.5;0.2;2;1499;2.33488992661775;-0.9848078;1.673648;-0.8964082;1.695612;0.9848077;1.673648;0.9192685;1.62294;
637949745255635172;193.89;25;0;3.5;0.2;2;1399;2.50178699070765;0.8660256;1;0.8011181;1.064959;-0.9848078;1.673648;-0.8964082;1.695612;
637949745310604874;199.3875;25;0;3.5;0.2;2;5498;0.636595125500182;-0.6427882;2.266044;-0.6274906;2.247689;0.8660256;1;0.8011181;1.064959;
637949745329599144;201.2867;25;0;3.5;0.2;2;1899;1.84307530279094;0.3420205;0.5603075;0.285084;0.5868412;-0.6427882;2.266044;-0.6274906;2.247689;
637949745351694125;203.4965;25;0;2;0.6;1.8;900;2.22222222222222;-0.3078177;0.6542765;-0.2836082;0.803571;0;2.4;0.09580243;2.294454;
637949745360686149;204.396;25;0;2;0.6;1.8;900;2.22222222222222;0.5785087;2.18944;0.616065;2.377614;-0.3078177;0.6542765;-0.2836082;0.803571;
637949745370688400;205.3956;25;0;2;0.6;1.8;1000;2;-0.7794226;1.05;-0.6787149;1.20759;0.5785087;2.18944;0.616065;2.377614;
637949745378690201;206.1957;25;0;2;0.6;1.8;800;2.5;0.8863269;1.656283;0.833851;1.569536;-0.7794226;1.05;-0.6787149;1.20759;
637949745387682226;207.0949;25;0;2;0.6;1.8;899;2.22469410456062;-0.8863271;1.656283;-0.8124744;1.616639;0.8863269;1.656283;0.833851;1.569536;
637949745396684250;207.9948;25;0;2;0.6;1.8;900;2.22222222222222;0.779423;1.05;0.8719989;1.105018;-0.8863271;1.656283;-0.8124744;1.616639;
637949745407756744;209.1031;25;0;2;0.6;1.8;1108;1.80505415162455;-0.5785094;2.18944;-0.5317234;1.971874;0.779423;1.05;0.8719989;1.105018;
637949745416668749;209.9939;25;0;2;0.6;1.8;891;2.24466891133558;0.3078185;0.6542768;0.2888428;0.9529546;-0.5785094;2.18944;-0.5317234;1.971874;
637949745454647298;213.7915;25;0;4.5;0.1;2.2;2498;1.80144115292234;-0.3762217;0.4663379;-0.3728277;0.502628;0;2.6;0.02799007;2.558671;
637949745497736997;218.1007;25;0;4.5;0.1;2.2;4309;1.04432582965885;0.7070663;2.342649;0.6882474;2.318896;-0.3762217;0.4663379;-0.3728277;0.502628;
637949745522722618;220.5996;25;0;4.5;0.1;2.2;2499;1.80072028811525;-0.9526277;0.9499994;-0.9570901;0.9824083;0.7070663;2.342649;0.6882474;2.318896;
637949745542722662;222.5988;25;0;4.5;0.1;2.2;1999;2.25112556278139;1.083289;1.691013;1.045464;1.702751;-0.9526277;0.9499994;-0.9570901;0.9824083;
637949745569708772;225.2977;25;0;4.5;0.1;2.2;2699;1.66728417932568;-1.083289;1.691012;-1.067187;1.708304;1.083289;1.691013;1.045464;1.702751;
637949745587699464;227.0967;25;0;4.5;0.1;2.2;1799;2.50138966092273;0.9526281;0.9500003;0.9201466;0.9878072;-1.083289;1.691012;-1.067187;1.708304;
637949745607803991;229.1069;25;0;4.5;0.1;2.2;2010;2.23880597014925;-0.7070671;2.342648;-0.6836946;2.307283;0.9526281;0.9500003;0.9201466;0.9878072;
637949745634790063;231.8056;25;0;4.5;0.1;2.2;2699;1.66728417932568;0.3762226;0.4663382;0.3484504;0.4593823;-0.7070671;2.342648;-0.6836946;2.307283;
637949745655774788;233.9047;25;0;2.5;0.3;1.4;999;2.5025025025025;-0.2394138;0.8422151;-0.1740116;0.8712492;0;2.2;0.01992367;2.137299;
637949745664776814;234.8047;25;0;2.5;0.3;1.4;900;2.77777777777778;0.4499513;2.036231;0.4264496;1.952577;-0.2394138;0.8422151;-0.1740116;0.8712492;
637949745676769517;236.0036;25;0;2.5;0.3;1.4;1199;2.08507089241034;-0.6062176;1.15;-0.566817;1.20784;0.4499513;2.036231;0.4264496;1.952577;
637949745701755139;238.5027;25;0;2.5;0.3;1.4;2499;1.00040016006403;0.6893654;1.621554;0.617806;1.592195;-0.6062176;1.15;-0.566817;1.20784;
637949745712747611;239.602;25;0;2.5;0.3;1.4;1099;2.27479526842584;-0.6893655;1.621553;-0.6993317;1.559618;0.6893654;1.621554;0.617806;1.592195;
637949745722749865;240.6017;25;0;2.5;0.3;1.4;1000;2.5;0.6062179;1.15;0.6019109;1.211643;-0.6893655;1.621553;-0.6993317;1.559618;
637949745733752342;241.7013;25;0;2.5;0.3;1.4;1100;2.27272727272727;-0.4499517;2.036231;-0.425409;1.975061;0.6062179;1.15;0.6019109;1.211643;
637949745751736392;243.5004;25;0;2.5;0.3;1.4;1799;1.38966092273485;0.2394144;0.8422153;0.2406903;0.924251;-0.4499517;2.036231;-0.425409;1.975061;
637949745784833835;246.81;25;0;1.5;1.1;2;1299;1.15473441108545;-0.3420197;0.5603072;-0.212681;0.9149821;0;2.5;0.029031;2.402309;
637949745795826313;247.9094;25;0;1.5;1.1;2;1099;1.36487716105551;0.6427875;2.266045;0.5518943;2.178391;-0.3420197;0.5603072;-0.212681;0.9149821;
637949745815820810;249.9085;25;0;1.5;1.1;2;1999;0.750375187593797;-0.8660251;0.9999995;-0.5845088;1.242829;0.6427875;2.266045;0.5518943;2.178391;
637949745827813508;251.1078;25;0;1.5;1.1;2;1199;1.25104253544621;0.9848077;1.673648;0.9262342;1.759162;-0.8660251;0.9999995;-0.5845088;1.242829;
637949745836805533;252.0075;25;0;1.5;1.1;2;900;1.66666666666667;-0.9848078;1.673648;-0.7451912;1.65052;0.9848077;1.673648;0.9262342;1.759162;
637949745846797783;253.0068;25;0;1.5;1.1;2;999;1.5015015015015;0.8660256;1;0.7718626;1.210123;-0.9848078;1.673648;-0.7451912;1.65052;
637949745858794413;254.2061;25;0;1.5;1.1;2;1199;1.25104253544621;-0.6427882;2.266044;-0.659732;2.105468;0.8660256;1;0.7718626;1.210123;
637949745868786659;255.2057;25;0;1.5;1.1;2;1000;1.5;0.3420205;0.5603075;0.3063206;1.03753;-0.6427882;2.266044;-0.659732;2.105468;
637949745922769404;260.6035;25;0;4;0.1;1.4;1400;2.85714285714286;-0.2394138;0.8422151;-0.2022453;0.8448875;0;2.2;-0.008965889;2.193677;
637949745954861573;263.8133;25;0;4;0.1;1.4;3210;1.24610591900312;0.4499513;2.036231;0.4405874;2.048626;-0.2394138;0.8422151;-0.2022453;0.8448875;
637949745983848098;266.7117;25;0;4;0.1;1.4;2898;1.38026224982747;-0.6062176;1.15;-0.5677555;1.130932;0.4499513;2.036231;0.4405874;2.048626;
637949746015835299;269.9104;25;0;4;0.1;1.4;3199;1.25039074710847;0.6893654;1.621554;0.675613;1.609891;-0.6062176;1.15;-0.5677555;1.130932;
637949746036820021;272.0093;25;0;4;0.1;1.4;2099;1.90566936636494;-0.6893655;1.621553;-0.6742548;1.611175;0.6893654;1.621554;0.675613;1.609891;
637949746054814070;273.8084;25;0;4;0.1;1.4;1799;2.22345747637576;0.6062179;1.15;0.606914;1.16081;-0.6893655;1.621553;-0.6742548;1.611175;
637949746095923331;277.9176;25;0;4;0.1;1.4;4109;0.973472864443904;-0.4499517;2.036231;-0.4150047;2.030416;0.6062179;1.15;0.606914;1.16081;
637949746112917152;279.6173;25;0;4;0.1;1.4;1700;2.35294117647059;0.2394144;0.8422153;0.2439835;0.8581622;-0.4499517;2.036231;-0.4150047;2.030416;
637949746148895247;283.2151;25;0;3;0.2;1.4;2199;1.36425648021828;-0.2394138;0.8422151;-0.2749649;0.8787994;0;2.2;0.02482929;2.177964;
637949746161888494;284.5146;25;0;3;0.2;1.4;1299;2.3094688221709;0.4499513;2.036231;0.4235965;1.971075;-0.2394138;0.8422151;-0.2749649;0.8787994;
637949746172890643;285.6141;25;0;3;0.2;1.4;1099;2.72975432211101;-0.6062176;1.15;-0.5517889;1.177104;0.4499513;2.036231;0.4235965;1.971075;
637949746184883346;286.8134;25;0;3;0.2;1.4;1199;2.50208507089241;0.6893654;1.621554;0.6505852;1.529819;-0.6062176;1.15;-0.5517889;1.177104;
637949746198871544;288.2129;25;0;3;0.2;1.4;1400;2.14285714285714;-0.6893655;1.621553;-0.6059381;1.606323;0.6893654;1.621554;0.6505852;1.529819;
637949746219861595;290.3119;25;0;3;0.2;1.4;2099;1.4292520247737;0.6062179;1.15;0.6184506;1.202164;-0.6893655;1.621553;-0.6059381;1.606323;
637949746233974770;291.7224;25;0;3;0.2;1.4;1410;2.12765957446809;-0.4499517;2.036231;-0.3696368;2.012391;0.6062179;1.15;0.6184506;1.202164;
637949746246967693;293.0219;25;0;3;0.2;1.4;1300;2.30769230769231;0.2394144;0.8422153;0.2544213;0.8674767;-0.4499517;2.036231;-0.3696368;2.012391;
637949747349435930;403.2705;25;1;1.5;1.1;2;799;1.87734668335419;-0.3420197;0.5603072;-0.1602038;0.9270515;0;2.5;0.07374664;2.254073;
637949747356437504;403.9704;25;1;1.5;1.1;2;700;2.14285714285714;0.6427875;2.266045;0.5848008;2.113617;-0.3420197;0.5603072;-0.1602038;0.9270515;
637949747363429075;404.6698;25;1;1.5;1.1;2;699;2.14592274678112;-0.8660251;0.9999995;-0.717199;1.222775;0.6427875;2.266045;0.5848008;2.113617;
637949747370430653;405.3693;25;1;1.5;1.1;2;699;2.14592274678112;0.9848077;1.673648;0.8563969;1.65978;-0.8660251;0.9999995;-0.717199;1.222775;
637949747379422678;406.269;25;1;1.5;1.1;2;900;1.66666666666667;-0.9848078;1.673648;-0.9379585;1.699208;0.9848077;1.673648;0.8563969;1.65978;
637949747387414478;407.0686;25;1;1.5;1.1;2;800;1.875;0.8660256;1;0.6724151;1.216341;-0.9848078;1.673648;-0.9379585;1.699208;
637949747394416050;407.7682;25;1;1.5;1.1;2;700;2.14285714285714;-0.6427882;2.266044;-0.442502;1.981676;0.8660256;1;0.6724151;1.216341;
637949747401417621;408.468;25;1;1.5;1.1;2;700;2.14285714285714;0.3420205;0.5603075;0.4702685;0.8886676;-0.6427882;2.266044;-0.442502;1.981676;
637949747452389098;413.5656;25;1;4;0.1;1.4;1599;2.50156347717323;-0.2394138;0.8422151;-0.2187983;0.8319036;0;2.2;0.02148471;2.163573;
637949747484479562;416.7752;25;1;4;0.1;1.4;3210;1.24610591900312;0.4499513;2.036231;0.423842;2.018802;-0.2394138;0.8422151;-0.2187983;0.8319036;
637949747500473160;418.3747;25;1;4;0.1;1.4;1600;2.5;-0.6062176;1.15;-0.5840689;1.138942;0.4499513;2.036231;0.423842;2.018802;
637949747545456810;422.8723;25;1;4;0.1;1.4;4498;0.889284126278346;0.6893654;1.621554;0.68866;1.606139;-0.6062176;1.15;-0.5840689;1.138942;
637949747564453754;424.7718;25;1;4;0.1;1.4;1900;2.10526315789474;-0.6893655;1.621553;-0.6461552;1.612375;0.6893654;1.621554;0.68866;1.606139;
637949747577446671;426.0714;25;1;4;0.1;1.4;1300;3.07692307692308;0.6062179;1.15;0.5967963;1.178683;-0.6893655;1.621553;-0.6461552;1.612375;
637949747591439827;427.4704;25;1;4;0.1;1.4;1399;2.85918513223731;-0.4499517;2.036231;-0.4316452;2.002603;0.6062179;1.15;0.5967963;1.178683;
637949747605533001;428.8807;25;1;4;0.1;1.4;1410;2.83687943262411;0.2394144;0.8422153;0.2374302;0.8382549;-0.4499517;2.036231;-0.4316452;2.002603;
637949747657514703;434.0785;25;1;4.5;0.1;2.2;1600;2.8125;-0.3762217;0.4663379;-0.3613541;0.4971859;0;2.6;-0.01911364;2.599155;
637949747674508525;435.7776;25;1;4.5;0.1;2.2;1699;2.64861683343143;0.7070663;2.342649;0.6609441;2.326925;-0.3762217;0.4663379;-0.3613541;0.4971859;
637949747690492123;437.3767;25;1;4.5;0.1;2.2;1599;2.81425891181989;-0.9526277;0.9499994;-0.90793;0.9448692;0.7070663;2.342649;0.6609441;2.326925;
637949747723479544;440.6751;25;1;4.5;0.1;2.2;3298;1.36446331109763;1.083289;1.691013;1.075655;1.674068;-0.9526277;0.9499994;-0.90793;0.9448692;
637949747749465397;443.2739;25;1;4.5;0.1;2.2;2599;1.73143516737207;-1.083289;1.691012;-1.056595;1.681861;1.083289;1.691013;1.075655;1.674068;
637949747768569695;445.1844;25;1;4.5;0.1;2.2;1911;2.35478806907378;0.9526281;0.9500003;0.9190792;0.9643263;-1.083289;1.691012;-1.056595;1.681861;
637949747794565548;447.7831;25;1;4.5;0.1;2.2;2599;1.73143516737207;-0.7070671;2.342648;-0.7152644;2.363216;0.9526281;0.9500003;0.9190792;0.9643263;
637949747810559145;449.3825;25;1;4.5;0.1;2.2;1599;2.81425891181989;0.3762226;0.4663382;0.3854876;0.5090717;-0.7070671;2.342648;-0.7152644;2.363216;
637949747845537018;452.8807;25;1;3.5;0.2;2;1999;1.75087543771886;-0.3420197;0.5603072;-0.3483112;0.6593815;0;2.5;0.007589994;2.475915;
637949747856534246;453.9802;25;1;3.5;0.2;2;1100;3.18181818181818;0.6427875;2.266045;0.6272189;2.231643;-0.3420197;0.5603072;-0.3483112;0.6593815;
637949747878526570;456.1794;25;1;3.5;0.2;2;2199;1.59163256025466;-0.8660251;0.9999995;-0.8320633;1.040458;0.6427875;2.266045;0.6272189;2.231643;
637949747901511743;458.4783;25;1;3.5;0.2;2;2299;1.52240104393214;0.9848077;1.673648;0.9624827;1.688181;-0.8660251;0.9999995;-0.8320633;1.040458;
637949747916502253;459.9773;25;1;3.5;0.2;2;1499;2.33488992661775;-0.9848078;1.673648;-0.9437943;1.625307;0.9848077;1.673648;0.9624827;1.688181;
637949747928613910;461.1879;25;1;3.5;0.2;2;1211;2.89017341040462;0.8660256;1;0.8427103;1.015001;-0.9848078;1.673648;-0.9437943;1.625307;
637949747941605448;462.4873;25;1;3.5;0.2;2;1299;2.69438029253272;-0.6427882;2.266044;-0.6434752;2.211277;0.8660256;1;0.8427103;1.015001;
637949747956598818;463.9866;25;1;3.5;0.2;2;1499;2.33488992661775;0.3420205;0.5603075;0.362965;0.65273;-0.6427882;2.266044;-0.6434752;2.211277;
637949747980584221;466.3856;25;1;2.5;0.3;1.4;999;2.5025025025025;-0.2394138;0.8422151;-0.1719152;0.8281242;0;2.2;-0.01941171;2.092006;
637949747998578269;468.1848;25;1;2.5;0.3;1.4;1799;1.38966092273485;0.4499513;2.036231;0.3860179;2.020645;-0.2394138;0.8422151;-0.1719152;0.8281242;
637949748010570967;469.3843;25;1;2.5;0.3;1.4;1200;2.08333333333333;-0.6062176;1.15;-0.5782793;1.205811;0.4499513;2.036231;0.3860179;2.020645;
637949748022563668;470.5835;25;1;2.5;0.3;1.4;1199;2.08507089241034;0.6893654;1.621554;0.6902941;1.585438;-0.6062176;1.15;-0.5782793;1.205811;
637949748033566144;471.683;25;1;2.5;0.3;1.4;1099;2.27479526842584;-0.6893655;1.621553;-0.6413496;1.593837;0.6893654;1.621554;0.6902941;1.585438;
637949748053550644;473.6822;25;1;2.5;0.3;1.4;1999;1.25062531265633;0.6062179;1.15;0.5354345;1.220618;-0.6893655;1.621553;-0.6413496;1.593837;
637949748069654267;475.2923;25;1;2.5;0.3;1.4;1610;1.5527950310559;-0.4499517;2.036231;-0.3897634;2.035011;0.6062179;1.15;0.5354345;1.220618;
637949748080646742;476.3921;25;1;2.5;0.3;1.4;1100;2.27272727272727;0.2394144;0.8422153;0.2166008;0.8954873;-0.4499517;2.036231;-0.3897634;2.035011;
637949748100641240;478.3912;25;1;2;0.6;1.8;1000;2;-0.3078177;0.6542765;-0.2392073;0.8738538;0;2.4;0.1173413;2.28885;
637949748109633265;479.2906;25;1;2;0.6;1.8;899;2.22469410456062;0.5785087;2.18944;0.5564718;2.054631;-0.3078177;0.6542765;-0.2392073;0.8738538;
637949748119635517;480.2902;25;1;2;0.6;1.8;1000;2;-0.7794226;1.05;-0.6749182;1.172486;0.5785087;2.18944;0.5564718;2.054631;
637949748127627315;481.0899;25;1;2;0.6;1.8;800;2.5;0.8863269;1.656283;0.7831492;1.616109;-0.7794226;1.05;-0.6749182;1.172486;
637949748136629342;481.9897;25;1;2;0.6;1.8;900;2.22222222222222;-0.8863271;1.656283;-0.8988249;1.601497;0.8863269;1.656283;0.7831492;1.616109;
637949748144641142;482.7904;25;1;2;0.6;1.8;801;2.49687890137328;0.779423;1.05;0.7685667;1.109141;-0.8863271;1.656283;-0.8988249;1.601497;
637949748154613387;483.7886;25;1;2;0.6;1.8;998;2.00400801603206;-0.5785094;2.18944;-0.4309091;2.066703;0.779423;1.05;0.7685667;1.109141;
637949748161614963;484.4884;25;1;2;0.6;1.8;700;2.85714285714286;0.3078185;0.6542768;0.3650945;0.8059567;-0.5785094;2.18944;-0.4309091;2.066703;
637949748180609243;486.3877;25;1;3;0.2;1.4;1000;3;-0.2394138;0.8422151;-0.2243525;0.8496556;0;2.2;0.05141433;2.151838;
637949748189611265;487.2875;25;1;3;0.2;1.4;900;3.33333333333333;0.4499513;2.036231;0.4664512;2.055328;-0.2394138;0.8422151;-0.2243525;0.8496556;
637949748204594637;488.7866;25;1;3;0.2;1.4;1499;2.00133422281521;-0.6062176;1.15;-0.5130698;1.186046;0.4499513;2.036231;0.4664512;2.055328;
637949748215719930;489.898;25;1;3;0.2;1.4;1041;2.88184438040346;0.6893654;1.621554;0.6392409;1.604816;-0.6062176;1.15;-0.5130698;1.186046;
637949748226692407;490.9964;25;1;3;0.2;1.4;1098;2.73224043715847;-0.6893655;1.621553;-0.6782064;1.574804;0.6893654;1.621554;0.6392409;1.604816;
637949748240685559;492.3958;25;1;3;0.2;1.4;1399;2.14438884917798;0.6062179;1.15;0.5687061;1.188804;-0.6893655;1.621553;-0.6782064;1.574804;
637949748250679433;493.3951;25;1;3;0.2;1.4;999;3.003003003003;-0.4499517;2.036231;-0.4261338;1.973762;0.6062179;1.15;0.5687061;1.188804;
637949748260687213;494.3951;25;1;3;0.2;1.4;1000;3;0.2394144;0.8422153;0.2450599;0.885424;-0.4499517;2.036231;-0.4261338;1.973762;
637949748841965215;552.5236;25;2;3.5;0.2;2;1100;3.18181818181818;-0.3420197;0.5603072;-0.3012194;0.6029605;0;2.5;0.04388833;2.458152;
637949748850957239;553.4228;25;2;3.5;0.2;2;899;3.89321468298109;0.6427875;2.266045;0.569379;2.261005;-0.3420197;0.5603072;-0.3012194;0.6029605;
637949748867951060;555.1223;25;2;3.5;0.2;2;1700;2.05882352941176;-0.8660251;0.9999995;-0.8255148;1.05208;0.6427875;2.266045;0.569379;2.261005;
637949748881954216;556.5217;25;2;3.5;0.2;2;1399;2.50178699070765;0.9848077;1.673648;0.9372672;1.596596;-0.8660251;0.9999995;-0.8255148;1.05208;
637949748894937138;557.821;25;2;3.5;0.2;2;1299;2.69438029253272;-0.9848078;1.673648;-0.9521081;1.656362;0.9848077;1.673648;0.9372672;1.596596;
637949748906939838;559.0205;25;2;3.5;0.2;2;1199;2.91909924937448;0.8660256;1;0.8211426;0.9692798;-0.9848078;1.673648;-0.9521081;1.656362;
637949748917932314;560.1201;25;2;3.5;0.2;2;1100;3.18181818181818;-0.6427882;2.266044;-0.6010816;2.199683;0.8660256;1;0.8211426;0.9692798;
637949748947362280;563.0703;25;2;3.5;0.2;2;2950;1.1864406779661;0.3420205;0.5603075;0.3229015;0.5014122;-0.6427882;2.266044;-0.6010816;2.199683;
637949748967016703;565.0288;25;2;2;0.6;1.8;800;2.5;-0.3078177;0.6542765;-0.2449598;0.8814325;0;2.4;0.04971285;2.243256;
637949748987009861;567.0279;25;2;2;0.6;1.8;1999;1.00050025012506;0.5785087;2.18944;0.4506111;2.085891;-0.3078177;0.6542765;-0.2449598;0.8814325;
637949749004003691;568.7271;25;2;2;0.6;1.8;1699;1.17716303708064;-0.7794226;1.05;-0.7116043;1.142461;0.5785087;2.18944;0.4506111;2.085891;
637949749012995718;569.6265;25;2;2;0.6;1.8;899;2.22469410456062;0.8863269;1.656283;0.8507564;1.779963;-0.7794226;1.05;-0.7116043;1.142461;
637949749035980890;571.9254;25;2;2;0.6;1.8;2299;0.869943453675511;-0.8863271;1.656283;-0.7303962;1.626005;0.8863269;1.656283;0.8507564;1.779963;
637949749045983141;572.9248;25;2;2;0.6;1.8;999;2.002002002002;0.779423;1.05;0.6665243;1.16776;-0.8863271;1.656283;-0.7303962;1.626005;
637949749053974937;573.7245;25;2;2;0.6;1.8;800;2.5;-0.5785094;2.18944;-0.5543989;2.126393;0.779423;1.05;0.6665243;1.16776;
637949749061966739;574.5241;25;2;2;0.6;1.8;800;2.5;0.3078185;0.6542768;0.2988436;0.911387;-0.5785094;2.18944;-0.5543989;2.126393;
637949749083071488;576.6345;25;2;1.5;1.1;2;799;1.87734668335419;-0.3420197;0.5603072;-0.2914115;1.002206;0;2.5;-0.01201271;2.377872;
637949749090073064;577.3342;25;2;1.5;1.1;2;700;2.14285714285714;0.6427875;2.266045;0.5544102;2.209016;-0.3420197;0.5603072;-0.2914115;1.002206;
637949749099065089;578.2338;25;2;1.5;1.1;2;900;1.66666666666667;-0.8660251;0.9999995;-0.7014046;1.309383;0.6427875;2.266045;0.5544102;2.209016;
637949749106066664;578.9334;25;2;1.5;1.1;2;700;2.14285714285714;0.9848077;1.673648;0.8702207;1.647;-0.8660251;0.9999995;-0.7014046;1.309383;
637949749137053645;582.0319;25;2;1.5;1.1;2;3098;0.484183344092963;-0.9848078;1.673648;-0.7388913;1.570347;0.9848077;1.673648;0.8702207;1.647;
637949749146045655;582.9315;25;2;1.5;1.1;2;900;1.66666666666667;0.8660256;1;0.7425224;1.162121;-0.9848078;1.673648;-0.7388913;1.570347;
637949749157038135;584.0312;25;2;1.5;1.1;2;1100;1.36363636363636;-0.6427882;2.266044;-0.6014382;2.216722;0.8660256;1;0.7425224;1.162121;
637949749165029933;584.8304;25;2;1.5;1.1;2;799;1.87734668335419;0.3420205;0.5603075;0.2040746;0.9465775;-0.6427882;2.266044;-0.6014382;2.216722;
637949749206019159;588.9287;25;2;4.5;0.1;2.2;1899;2.3696682464455;-0.3762217;0.4663379;-0.3686472;0.4685942;0;2.6;-0.02913624;2.560763;
637949749248108634;593.1378;25;2;4.5;0.1;2.2;4209;1.06913756236636;0.7070663;2.342649;0.7074502;2.298854;-0.3762217;0.4663379;-0.3686472;0.4685942;
637949749277099595;596.0367;25;2;4.5;0.1;2.2;2899;1.55225939979303;-0.9526277;0.9499994;-0.9391251;0.9350982;0.7070663;2.342649;0.7074502;2.298854;
637949749301081819;598.4353;25;2;4.5;0.1;2.2;2399;1.87578157565652;1.083289;1.691013;1.074818;1.691714;-0.9526277;0.9499994;-0.9391251;0.9350982;
637949749315074975;599.8348;25;2;4.5;0.1;2.2;1400;3.21428571428571;-1.083289;1.691012;-1.07175;1.664112;1.083289;1.691013;1.074818;1.691714;
637949749335067366;601.8338;25;2;4.5;0.1;2.2;1999;2.25112556278139;0.9526281;0.9500003;0.9145808;0.9806655;-1.083289;1.691012;-1.07175;1.664112;
637949749362441172;604.5782;25;2;4.5;0.1;2.2;2744;1.6399416909621;-0.7070671;2.342648;-0.6703199;2.308909;0.9526281;0.9500003;0.9145808;0.9806655;
637949749379164781;606.243;25;2;4.5;0.1;2.2;1665;2.7027027027027;0.3762226;0.4663382;0.3910435;0.5016479;-0.7070671;2.342648;-0.6703199;2.308909;
637949749401146765;608.442;25;2;3;0.2;1.4;1100;2.72727272727273;-0.2394138;0.8422151;-0.1556393;0.8311061;0;2.2;0.0007865424;2.193445;
637949749427142616;611.0406;25;2;3;0.2;1.4;2599;1.15429011158138;0.4499513;2.036231;0.3716376;1.981187;-0.2394138;0.8422151;-0.1556393;0.8311061;
637949749455128917;613.8397;25;2;3;0.2;1.4;2799;1.07181136120043;-0.6062176;1.15;-0.5739364;1.070238;0.4499513;2.036231;0.3716376;1.981187;
637949749469242092;615.2505;25;2;3;0.2;1.4;1411;2.12615166548547;0.6893654;1.621554;0.6605988;1.621594;-0.6062176;1.15;-0.5739364;1.070238;
637949749481354818;616.4619;25;2;3;0.2;1.4;1211;2.47729149463254;-0.6893655;1.621553;-0.6542839;1.586624;0.6893654;1.621554;0.6605988;1.621594;
637949749494217713;617.7488;25;2;3;0.2;1.4;1287;2.33100233100233;0.6062179;1.15;0.5882085;1.172485;-0.6893655;1.621553;-0.6542839;1.586624;
637949749510211312;619.3479;25;2;3;0.2;1.4;1599;1.87617260787993;-0.4499517;2.036231;-0.4750586;1.981279;0.6062179;1.15;0.5882085;1.172485;
637949749523204237;620.6473;25;2;3;0.2;1.4;1299;2.3094688221709;0.2394144;0.8422153;0.2266663;0.912155;-0.4499517;2.036231;-0.4750586;1.981279;
637949749565293714;624.8564;25;2;2.5;0.3;1.4;3109;0.804117079446767;-0.2394138;0.8422151;-0.2165543;0.7427933;0;2.2;0.009759549;2.169341;
637949749576296190;625.9562;25;2;2.5;0.3;1.4;1100;2.27272727272727;0.4499513;2.036231;0.3980043;1.946013;-0.2394138;0.8422151;-0.2165543;0.7427933;
637949749585288203;626.8557;25;2;2.5;0.3;1.4;900;2.77777777777778;-0.6062176;1.15;-0.6347516;1.153034;0.4499513;2.036231;0.3980043;1.946013;
637949749596280686;627.9551;25;2;2.5;0.3;1.4;1099;2.27479526842584;0.6893654;1.621554;0.6365502;1.524399;-0.6062176;1.15;-0.6347516;1.153034;
637949749605282712;628.8548;25;2;2.5;0.3;1.4;900;2.77777777777778;-0.6893655;1.621553;-0.6777115;1.613832;0.6893654;1.621554;0.6365502;1.524399;
637949749625267208;630.8539;25;2;2.5;0.3;1.4;1999;1.25062531265633;0.6062179;1.15;0.4982934;1.237094;-0.6893655;1.621553;-0.6777115;1.613832;
637949749635259457;631.8531;25;2;2.5;0.3;1.4;999;2.5025025025025;-0.4499517;2.036231;-0.3696739;2.01038;0.6062179;1.15;0.4982934;1.237094;
637949749645261708;632.8528;25;2;2.5;0.3;1.4;1000;2.5;0.2394144;0.8422153;0.2243334;0.950586;-0.4499517;2.036231;-0.3696739;2.01038;
637949749677508964;636.0854;25;2;4;0.1;1.4;1933;2.06932229694775;-0.2394138;0.8422151;-0.2240348;0.8851581;0;2.2;-0.004625103;2.150222;
637949749691244052;637.4508;25;2;4;0.1;1.4;1365;2.93040293040293;0.4499513;2.036231;0.4195024;2.017126;-0.2394138;0.8422151;-0.2240348;0.8851581;
637949749725341729;640.8607;25;2;4;0.1;1.4;3410;1.17302052785924;-0.6062176;1.15;-0.5727669;1.154312;0.4499513;2.036231;0.4195024;2.017126;
637949749777311655;646.0577;25;2;4;0.1;1.4;5197;0.769674812391765;0.6893654;1.621554;0.6935073;1.611129;-0.6062176;1.15;-0.5727669;1.154312;
637949749798296380;648.157;25;2;4;0.1;1.4;2099;1.90566936636494;-0.6893655;1.621553;-0.6769555;1.623043;0.6893654;1.621554;0.6935073;1.611129;
637949749819291105;650.256;25;2;4;0.1;1.4;2099;1.90566936636494;0.6062179;1.15;0.58999;1.153271;-0.6893655;1.621553;-0.6769555;1.623043;
637949749837275151;652.0549;25;2;4;0.1;1.4;1799;2.22345747637576;-0.4499517;2.036231;-0.4267728;2.012688;0.6062179;1.15;0.58999;1.153271;
637949749857389682;654.0654;25;2;4;0.1;1.4;2010;1.99004975124378;0.2394144;0.8422153;0.2317664;0.8645742;-0.4499517;2.036231;-0.4267728;2.012688;
637949750426570378;710.9837;25;3;4.5;0.1;2.2;2199;2.04638472032742;-0.3762217;0.4663379;-0.3593252;0.4599984;0;2.6;-0.01027064;2.584195;
637949750466548087;714.9817;25;3;4.5;0.1;2.2;3998;1.1255627813907;0.7070663;2.342649;0.6897309;2.339719;-0.3762217;0.4663379;-0.3593252;0.4599984;
637949750483531909;716.6805;25;3;4.5;0.1;2.2;1699;2.64861683343143;-0.9526277;0.9499994;-0.921257;0.9888585;0.7070663;2.342649;0.6897309;2.339719;
637949750517639585;720.0905;25;3;4.5;0.1;2.2;3410;1.31964809384164;1.083289;1.691013;1.060792;1.65343;-0.9526277;0.9499994;-0.921257;0.9888585;
637949750542625210;722.5892;25;3;4.5;0.1;2.2;2499;1.80072028811525;-1.083289;1.691012;-1.067223;1.708379;1.083289;1.691013;1.060792;1.65343;
637949750582614210;726.5878;25;3;4.5;0.1;2.2;3999;1.12528132033008;0.9526281;0.9500003;0.9309664;0.9832883;-1.083289;1.691012;-1.067223;1.708379;
637949750610590507;729.3862;25;3;4.5;0.1;2.2;2798;1.60829163688349;-0.7070671;2.342648;-0.6854951;2.329019;0.9526281;0.9500003;0.9309664;0.9832883;
637949750635686155;731.8958;25;3;4.5;0.1;2.2;2510;1.79282868525896;0.3762226;0.4663382;0.3685951;0.4761308;-0.7070671;2.342648;-0.6854951;2.329019;
637949750691668755;737.4935;25;3;3.5;0.2;2;4298;0.814332247557003;-0.3420197;0.5603072;-0.3004574;0.5416995;0;2.5;0.01498749;2.46425;
637949750716654382;739.9922;25;3;3.5;0.2;2;2499;1.40056022408964;0.6427875;2.266045;0.6093451;2.242968;-0.3420197;0.5603072;-0.3004574;0.5416995;
637949750736638878;741.9912;25;3;3.5;0.2;2;1999;1.75087543771886;-0.8660251;0.9999995;-0.8147388;1.022915;0.6427875;2.266045;0.6093451;2.242968;
637949750753633287;743.6903;25;3;3.5;0.2;2;1699;2.06003531489111;0.9848077;1.673648;0.9772518;1.672063;-0.8660251;0.9999995;-0.8147388;1.022915;
637949750767625568;745.0895;25;3;3.5;0.2;2;1399;2.50178699070765;-0.9848078;1.673648;-0.9583051;1.650331;0.9848077;1.673648;0.9772518;1.672063;
637949750779625518;746.2891;25;3;3.5;0.2;2;1200;2.91666666666667;0.8660256;1;0.838608;1.03821;-0.9848078;1.673648;-0.9583051;1.650331;
637949750794728919;747.7998;25;3;3.5;0.2;2;1511;2.31634679020516;-0.6427882;2.266044;-0.6063824;2.22468;0.8660256;1;0.838608;1.03821;
637949750814721819;749.7991;25;3;3.5;0.2;2;1999;1.75087543771886;0.3420205;0.5603075;0.3210683;0.5801028;-0.6427882;2.266044;-0.6063824;2.22468;
637949750848703454;753.1971;25;3;2;0.6;1.8;1299;1.53964588144727;-0.3078177;0.6542765;-0.3306011;0.7971482;0;2.4;-0.03400114;2.324564;
637949750859695927;754.2965;25;3;2;0.6;1.8;1099;1.81983621474067;0.5785087;2.18944;0.5641453;2.124145;-0.3078177;0.6542765;-0.3306011;0.7971482;
637949750869688172;755.2961;25;3;2;0.6;1.8;1000;2;-0.7794226;1.05;-0.7275957;1.098929;0.5785087;2.18944;0.5641453;2.124145;
637949750879690431;756.2958;25;3;2;0.6;1.8;1000;2;0.8863269;1.656283;0.8481019;1.633335;-0.7794226;1.05;-0.7275957;1.098929;
637949750897794503;758.1063;25;3;2;0.6;1.8;1810;1.10497237569061;-0.8863271;1.656283;-0.7289159;1.613644;0.8863269;1.656283;0.8481019;1.633335;
637949750922780127;760.6047;25;3;2;0.6;1.8;2498;0.800640512409928;0.779423;1.05;0.753848;1.20355;-0.8863271;1.656283;-0.7289159;1.613644;
637949750934772825;761.8043;25;3;2;0.6;1.8;1200;1.66666666666667;-0.5785094;2.18944;-0.4915153;2.129406;0.779423;1.05;0.753848;1.20355;
637949750950766424;763.4033;25;3;2;0.6;1.8;1599;1.25078173858662;0.3078185;0.6542768;0.2575619;0.8749965;-0.5785094;2.18944;-0.4915153;2.129406;
637949750974751825;765.8024;25;3;3;0.2;1.4;1299;2.3094688221709;-0.2394138;0.8422151;-0.2582222;0.8472265;0;2.2;0.02472632;2.165001;
637949750992745871;767.6015;25;3;3;0.2;1.4;1799;1.66759310728182;0.4499513;2.036231;0.3503712;2.037703;-0.2394138;0.8422151;-0.2582222;0.8472265;
637949751004738572;768.8008;25;3;3;0.2;1.4;1199;2.50208507089241;-0.6062176;1.15;-0.5354547;1.193438;0.4499513;2.036231;0.3503712;2.037703;
637949751014740825;769.8005;25;3;3;0.2;1.4;1000;3;0.6893654;1.621554;0.723075;1.62502;-0.6062176;1.15;-0.5354547;1.193438;
637949751026733521;771;25;3;3;0.2;1.4;1199;2.50208507089241;-0.6893655;1.621553;-0.6738448;1.554987;0.6893654;1.621554;0.723075;1.62502;
637949751037725996;772.0995;25;3;3;0.2;1.4;1099;2.72975432211101;0.6062179;1.15;0.6079252;1.156346;-0.6893655;1.621553;-0.6738448;1.554987;
637949751048718473;773.1989;25;3;3;0.2;1.4;1099;2.72975432211101;-0.4499517;2.036231;-0.434978;2.040226;0.6062179;1.15;0.6079252;1.156346;
637949751057830521;774.1096;25;3;3;0.2;1.4;911;3.29308452250274;0.2394144;0.8422153;0.2300358;0.9065707;-0.4499517;2.036231;-0.434978;2.040226;
637949751092818396;777.6083;25;3;4;0.1;1.4;2099;1.90566936636494;-0.2394138;0.8422151;-0.2460515;0.8798472;0;2.2;0.02698653;2.185321;
637949751104811096;778.8074;25;3;4;0.1;1.4;1199;3.33611342785655;0.4499513;2.036231;0.4584181;2.019063;-0.2394138;0.8422151;-0.2460515;0.8798472;
637949751116803797;780.0073;25;3;4;0.1;1.4;1200;3.33333333333333;-0.6062176;1.15;-0.5727913;1.154517;0.4499513;2.036231;0.4584181;2.019063;
637949751132800741;781.6063;25;3;4;0.1;1.4;1599;2.50156347717323;0.6893654;1.621554;0.6561027;1.613738;-0.6062176;1.15;-0.5727913;1.154517;
637949751145783662;782.9057;25;3;4;0.1;1.4;1299;3.07929176289453;-0.6893655;1.621553;-0.6412445;1.612485;0.6893654;1.621554;0.6561027;1.613738;
637949751172779913;785.6045;25;3;4;0.1;1.4;2699;1.48203038162282;0.6062179;1.15;0.5867089;1.159246;-0.6893655;1.621553;-0.6412445;1.612485;
637949751198015587;788.1359;25;3;4;0.1;1.4;2531;1.58040300276571;-0.4499517;2.036231;-0.409712;2.007476;0.6062179;1.15;0.5867089;1.159246;
637949751220860733;790.4132;25;3;4;0.1;1.4;2277;1.75669740887132;0.2394144;0.8422153;0.2232925;0.8739443;-0.4499517;2.036231;-0.409712;2.007476;
637949751236854336;792.0124;25;3;1.5;1.1;2;800;1.875;-0.3420197;0.5603072;-0.1613137;0.9822788;0;2.5;0.02893263;2.26229;
637949751243855909;792.7121;25;3;1.5;1.1;2;700;2.14285714285714;0.6427875;2.266045;0.526765;2.057558;-0.3420197;0.5603072;-0.1613137;0.9822788;
637949751251847708;793.5118;25;3;1.5;1.1;2;800;1.875;-0.8660251;0.9999995;-0.7207634;1.192122;0.6427875;2.266045;0.526765;2.057558;
637949751259849510;794.3115;25;3;1.5;1.1;2;800;1.875;0.9848077;1.673648;0.8862195;1.638931;-0.8660251;0.9999995;-0.7207634;1.192122;
637949751266841086;795.0109;25;3;1.5;1.1;2;699;2.14592274678112;-0.9848078;1.673648;-0.8838928;1.635028;0.9848077;1.673648;0.8862195;1.638931;
637949751273832656;795.7106;25;3;1.5;1.1;2;700;2.14285714285714;0.8660256;1;0.7733609;1.19495;-0.9848078;1.673648;-0.8838928;1.635028;
637949751280834233;796.4105;25;3;1.5;1.1;2;700;2.14285714285714;-0.6427882;2.266044;-0.4699222;2.009446;0.8660256;1;0.7733609;1.19495;
637949751287835812;797.1102;25;3;1.5;1.1;2;700;2.14285714285714;0.3420205;0.5603075;0.3740688;0.8310175;-0.6427882;2.266044;-0.4699222;2.009446;
637949751313821657;799.7089;25;3;2.5;0.3;1.4;1899;1.31648235913639;-0.2394138;0.8422151;-0.2405604;0.8772469;0;2.2;0.04132507;2.129657;
637949751322813680;800.6084;25;3;2.5;0.3;1.4;899;2.78086763070078;0.4499513;2.036231;0.4603339;2.018288;-0.2394138;0.8422151;-0.2405604;0.8772469;
637949751336806831;802.008;25;3;2.5;0.3;1.4;1400;1.78571428571429;-0.6062176;1.15;-0.5344035;1.055063;0.4499513;2.036231;0.4603339;2.018288;
637949751345918884;802.9185;25;3;2.5;0.3;1.4;910;2.74725274725275;0.6893654;1.621554;0.6465356;1.62356;-0.6062176;1.15;-0.5344035;1.055063;
637949751353910679;803.7182;25;3;2.5;0.3;1.4;800;3.125;-0.6893655;1.621553;-0.7491968;1.619299;0.6893654;1.621554;0.6465356;1.62356;
637949751364903152;804.8177;25;3;2.5;0.3;1.4;1099;2.27479526842584;0.6062179;1.15;0.5599311;1.258139;-0.6893655;1.621553;-0.7491968;1.619299;
637949751375905633;805.9172;25;3;2.5;0.3;1.4;1099;2.27479526842584;-0.4499517;2.036231;-0.512489;1.92528;0.6062179;1.15;0.5599311;1.258139;
637949751382897204;806.6168;25;3;2.5;0.3;1.4;700;3.57142857142857;0.2394144;0.8422153;0.2685923;0.9077022;-0.4499517;2.036231;-0.512489;1.92528;
637949752476279396;915.9548;25;4;2.5;0.3;1.4;1100;2.27272727272727;-0.2394138;0.8422151;-0.1918765;0.8694174;0;2.2;0.02097746;2.136306;
637949752485271420;916.8544;25;4;2.5;0.3;1.4;900;2.77777777777778;0.4499513;2.036231;0.4272099;2.075842;-0.2394138;0.8422151;-0.1918765;0.8694174;
637949752495273670;917.8538;25;4;2.5;0.3;1.4;999;2.5025025025025;-0.6062176;1.15;-0.5308545;1.22941;0.4499513;2.036231;0.4272099;2.075842;
637949752506266146;918.9534;25;4;2.5;0.3;1.4;1100;2.27272727272727;0.6893654;1.621554;0.6509362;1.626272;-0.6062176;1.15;-0.5308545;1.22941;
637949752514267948;919.7532;25;4;2.5;0.3;1.4;800;3.125;-0.6893655;1.621553;-0.64855;1.633812;0.6893654;1.621554;0.6509362;1.626272;
637949752521255141;920.4525;25;4;2.5;0.3;1.4;699;3.57653791130186;0.6062179;1.15;0.5809681;1.216636;-0.6893655;1.621553;-0.64855;1.633812;
637949752530257170;921.3522;25;4;2.5;0.3;1.4;900;2.77777777777778;-0.4499517;2.036231;-0.4433172;2.044359;0.6062179;1.15;0.5809681;1.216636;
637949752537248743;922.0521;25;4;2.5;0.3;1.4;700;3.57142857142857;0.2394144;0.8422153;0.2258662;0.9294062;-0.4499517;2.036231;-0.4433172;2.044359;
637949752578227353;926.1499;25;4;3;0.2;1.4;2199;1.36425648021828;-0.2394138;0.8422151;-0.2537067;0.9366771;0;2.2;0.02063869;2.152295;
637949752597335904;928.0605;25;4;3;0.2;1.4;1911;1.56985871271586;0.4499513;2.036231;0.4405447;1.998269;-0.2394138;0.8422151;-0.2537067;0.9366771;
637949752609228581;929.2497;25;4;3;0.2;1.4;1189;2.52312867956266;-0.6062176;1.15;-0.5547208;1.183352;0.4499513;2.036231;0.4405447;1.998269;
637949752621321304;930.459;25;4;3;0.2;1.4;1209;2.48138957816377;0.6893654;1.621554;0.65199;1.616003;-0.6062176;1.15;-0.5547208;1.183352;
637949752645316703;932.8582;25;4;3;0.2;1.4;2399;1.25052105043768;-0.6893655;1.621553;-0.7443128;1.651086;0.6893654;1.621554;0.65199;1.616003;
637949752657299401;934.0574;25;4;3;0.2;1.4;1199;2.50208507089241;0.6062179;1.15;0.600583;1.213786;-0.6893655;1.621553;-0.7443128;1.651086;
637949752667301651;935.057;25;4;3;0.2;1.4;1000;3;-0.4499517;2.036231;-0.4081435;2.065099;0.6062179;1.15;0.600583;1.213786;
637949752679294349;936.2565;25;4;3;0.2;1.4;1200;2.5;0.2394144;0.8422153;0.2513535;0.9101084;-0.4499517;2.036231;-0.4081435;2.065099;
637949752703279751;938.6553;25;4;2;0.6;1.8;1499;1.33422281521014;-0.3078177;0.6542765;-0.226537;0.8222787;0;2.4;0.01624401;2.241165;
637949752713282022;939.6547;25;4;2;0.6;1.8;999;2.002002002002;0.5785087;2.18944;0.4330179;2.090811;-0.3078177;0.6542765;-0.226537;0.8222787;
637949752722274741;940.5544;25;4;2;0.6;1.8;900;2.22222222222222;-0.7794226;1.05;-0.6118007;1.076099;0.5785087;2.18944;0.4330179;2.090811;
637949752731274955;941.454;25;4;2;0.6;1.8;900;2.22222222222222;0.8863269;1.656283;0.7147737;1.614829;-0.7794226;1.05;-0.6118007;1.076099;
637949752740276852;942.3541;25;4;2;0.6;1.8;900;2.22222222222222;-0.8863271;1.656283;-0.6831093;1.660514;0.8863269;1.656283;0.7147737;1.614829;
637949752748270022;943.1535;25;4;2;0.6;1.8;799;2.50312891113892;0.779423;1.05;0.6228737;1.156113;-0.8863271;1.656283;-0.6831093;1.660514;
637949752766363027;944.9636;25;4;2;0.6;1.8;1810;1.10497237569061;-0.5785094;2.18944;-0.5208898;2.035846;0.779423;1.05;0.6228737;1.156113;
637949752775365050;945.863;25;4;2;0.6;1.8;899;2.22469410456062;0.3078185;0.6542768;0.2168359;0.9031918;-0.5785094;2.18944;-0.5208898;2.035846;
637949752803351356;948.6619;25;4;4.5;0.1;2.2;1499;3.00200133422282;-0.3762217;0.4663379;-0.3920444;0.4830214;0;2.6;-0.005761698;2.571778;
637949752817614563;950.0959;25;4;4.5;0.1;2.2;1434;3.13807531380753;0.7070663;2.342649;0.6860236;2.325332;-0.3762217;0.4663379;-0.3920444;0.4830214;
637949752830337426;951.3608;25;4;4.5;0.1;2.2;1265;3.55731225296443;-0.9526277;0.9499994;-0.9176467;0.9386801;0.7070663;2.342649;0.6860236;2.325332;
637949752850331933;953.3598;25;4;4.5;0.1;2.2;1999;2.25112556278139;1.083289;1.691013;1.059987;1.662129;-0.9526277;0.9499994;-0.9176467;0.9386801;
637949752869316201;955.2588;25;4;4.5;0.1;2.2;1899;2.3696682464455;-1.083289;1.691012;-1.044717;1.668976;1.083289;1.691013;1.059987;1.662129;
637949752891311149;957.4575;25;4;4.5;0.1;2.2;2199;2.04638472032742;0.9526281;0.9500003;0.9301705;0.9918059;-1.083289;1.691012;-1.044717;1.668976;
637949752904414099;958.7681;25;4;4.5;0.1;2.2;1311;3.4324942791762;-0.7070671;2.342648;-0.7163925;2.344009;0.9526281;0.9500003;0.9301705;0.9918059;
637949752949394223;963.2662;25;4;4.5;0.1;2.2;4498;1.00044464206314;0.3762226;0.4663382;0.3832726;0.4362198;-0.7070671;2.342648;-0.7163925;2.344009;
637949752987372773;967.0641;25;4;3.5;0.2;2;1399;2.50178699070765;-0.3420197;0.5603072;-0.2644522;0.5902698;0;2.5;0.01231388;2.438134;
637949753019359972;970.2627;25;4;3.5;0.2;2;3199;1.09409190371991;0.6427875;2.266045;0.6337488;2.202595;-0.3420197;0.5603072;-0.2644522;0.5902698;
637949753031352674;971.4624;25;4;3.5;0.2;2;1200;2.91666666666667;-0.8660251;0.9999995;-0.8447426;1.049841;0.6427875;2.266045;0.6337488;2.202595;
637949753042460216;972.5726;25;4;3.5;0.2;2;1110;3.15315315315315;0.9848077;1.673648;0.9147268;1.694064;-0.8660251;0.9999995;-0.8447426;1.049841;
637949753065452366;974.8719;25;4;3.5;0.2;2;2299;1.52240104393214;-0.9848078;1.673648;-0.8944163;1.640115;0.9848077;1.673648;0.9147268;1.694064;
637949753081445973;976.471;25;4;3.5;0.2;2;1599;2.18886804252658;0.8660256;1;0.8133364;1.001408;-0.9848078;1.673648;-0.8944163;1.640115;
637949753094430470;977.7704;25;4;3.5;0.2;2;1299;2.69438029253272;-0.6427882;2.266044;-0.6335824;2.218962;0.8660256;1;0.8133364;1.001408;
637949753120424152;980.3694;25;4;3.5;0.2;2;2599;1.34667179684494;0.3420205;0.5603075;0.2816128;0.615072;-0.6427882;2.266044;-0.6335824;2.218962;
637949753139416838;982.2686;25;4;1.5;1.1;2;800;1.875;-0.3420197;0.5603072;-0.1984182;0.8924375;0;2.5;0.04712752;2.228864;
637949753150409155;983.3679;25;4;1.5;1.1;2;1099;1.36487716105551;0.6427875;2.266045;0.4132303;2.07778;-0.3420197;0.5603072;-0.1984182;0.8924375;
637949753164405102;984.7675;25;4;1.5;1.1;2;1400;1.07142857142857;-0.8660251;0.9999995;-0.6026244;1.243371;0.6427875;2.266045;0.4132303;2.07778;
637949753173508067;985.6782;25;4;1.5;1.1;2;911;1.64654226125137;0.9848077;1.673648;0.65544;1.660608;-0.8660251;0.9999995;-0.6026244;1.243371;
637949753180509643;986.3775;25;4;1.5;1.1;2;699;2.14592274678112;-0.9848078;1.673648;-0.7622475;1.62444;0.9848077;1.673648;0.65544;1.660608;
637949753187511219;987.0776;25;4;1.5;1.1;2;700;2.14285714285714;0.8660256;1;0.62562;1.175665;-0.9848078;1.673648;-0.7622475;1.62444;
637949753196503243;987.9768;25;4;1.5;1.1;2;899;1.66852057842047;-0.6427882;2.266044;-0.5112496;2.05002;0.8660256;1;0.62562;1.175665;
637949753204495040;988.7765;25;4;1.5;1.1;2;800;1.875;0.3420205;0.5603075;0.3779982;1.046789;-0.6427882;2.266044;-0.5112496;2.05002;
637949753228490444;991.1756;25;4;4;0.1;1.4;1399;2.85918513223731;-0.2394138;0.8422151;-0.2180725;0.8784882;0;2.2;0.01422493;2.18504;
637949753253476059;993.6741;25;4;4;0.1;1.4;2499;1.60064025610244;0.4499513;2.036231;0.4305393;2.017709;-0.2394138;0.8422151;-0.2180725;0.8784882;
637949753277461464;996.0731;25;4;4;0.1;1.4;2399;1.66736140058358;-0.6062176;1.15;-0.5750937;1.127592;0.4499513;2.036231;0.4305393;2.017709;
637949753290454393;997.3723;25;4;4;0.1;1.4;1299;3.07929176289453;0.6893654;1.621554;0.6644384;1.631527;-0.6062176;1.15;-0.5750937;1.127592;
637949753319440911;1000.271;25;4;4;0.1;1.4;2899;1.37978613314936;-0.6893655;1.621553;-0.6699292;1.634342;0.6893654;1.621554;0.6644384;1.631527;
637949753344536560;1002.781;25;4;4;0.1;1.4;2510;1.59362549800797;0.6062179;1.15;0.5658832;1.173703;-0.6893655;1.621553;-0.6699292;1.634342;
637949753362530609;1004.58;25;4;4;0.1;1.4;1799;2.22345747637576;-0.4499517;2.036231;-0.4366407;2.028408;0.6062179;1.15;0.5658832;1.173703;
637949753385525787;1006.88;25;4;4;0.1;1.4;2300;1.73913043478261;0.2394144;0.8422153;0.2463782;0.8774747;-0.4499517;2.036231;-0.4366407;2.028408;
637949753766677998;1044.995;25;5;4.5;0.1;2.2;1410;3.19148936170213;-0.3762217;0.4663379;-0.3318969;0.4882438;0;2.6;0.0266603;2.601659;
637949753797664971;1048.094;25;5;4.5;0.1;2.2;3099;1.45208131655373;0.7070663;2.342649;0.7260898;2.317993;-0.3762217;0.4663379;-0.3318969;0.4882438;
637949753820653975;1050.392;25;5;4.5;0.1;2.2;2299;1.9573727707699;-0.9526277;0.9499994;-0.916238;0.9687843;0.7070663;2.342649;0.7260898;2.317993;
637949753832648502;1051.592;25;5;4.5;0.1;2.2;1200;3.75;1.083289;1.691013;1.06056;1.697175;-0.9526277;0.9499994;-0.916238;0.9687843;
637949753869634126;1055.29;25;5;4.5;0.1;2.2;3698;1.21687398593835;-1.083289;1.691012;-1.049888;1.703946;1.083289;1.691013;1.06056;1.697175;
637949753886736257;1057;25;5;4.5;0.1;2.2;1710;2.63157894736842;0.9526281;0.9500003;0.9272073;0.9419576;-1.083289;1.691012;-1.049888;1.703946;
637949753912725518;1059.599;25;5;4.5;0.1;2.2;2599;1.73143516737207;-0.7070671;2.342648;-0.7164944;2.315226;0.9526281;0.9500003;0.9272073;0.9419576;
637949753944706096;1062.798;25;5;4.5;0.1;2.2;3199;1.40668959049703;0.3762226;0.4663382;0.3806606;0.4834492;-0.7070671;2.342648;-0.7164944;2.315226;
637949753968695114;1065.197;25;5;2.5;0.3;1.4;1499;1.66777851901268;-0.2394138;0.8422151;-0.1533361;0.9203247;0;2.2;-0.03175975;2.133393;
637949753978917498;1066.226;25;5;2.5;0.3;1.4;1029;2.42954324586978;0.4499513;2.036231;0.5607854;2.129807;-0.2394138;0.8422151;-0.1533361;0.9203247;
637949753989799951;1067.307;25;5;2.5;0.3;1.4;1081;2.31267345050879;-0.6062176;1.15;-0.5411441;1.157369;0.4499513;2.036231;0.5607854;2.129807;
637949753998791975;1068.206;25;5;2.5;0.3;1.4;900;2.77777777777778;0.6893654;1.621554;0.6754044;1.594426;-0.6062176;1.15;-0.5411441;1.157369;
637949754009784448;1069.306;25;5;2.5;0.3;1.4;1099;2.27479526842584;-0.6893655;1.621553;-0.6729783;1.554925;0.6893654;1.621554;0.6754044;1.594426;
637949754031779400;1071.505;25;5;2.5;0.3;1.4;2199;1.1368804001819;0.6062179;1.15;0.4930046;1.224392;-0.6893655;1.621553;-0.6729783;1.554925;
637949754054774575;1073.804;25;5;2.5;0.3;1.4;2299;1.08742931709439;-0.4499517;2.036231;-0.427889;2.036291;0.6062179;1.15;0.4930046;1.224392;
637949754074759072;1075.803;25;5;2.5;0.3;1.4;1999;1.25062531265633;0.2394144;0.8422153;0.2686254;0.9355915;-0.4499517;2.036231;-0.427889;2.036291;
637949754120739414;1080.401;25;5;3;0.2;1.4;1299;2.3094688221709;-0.2394138;0.8422151;-0.2157015;0.8722606;0;2.2;0.002482835;2.126109;
637949754131731897;1081.5;25;5;3;0.2;1.4;1100;2.72727272727273;0.4499513;2.036231;0.3986317;1.998066;-0.2394138;0.8422151;-0.2157015;0.8722606;
637949754152836649;1083.61;25;5;3;0.2;1.4;2110;1.4218009478673;-0.6062176;1.15;-0.5501444;1.189843;0.4499513;2.036231;0.3986317;1.998066;
637949754170820694;1085.409;25;5;3;0.2;1.4;1799;1.66759310728182;0.6893654;1.621554;0.6305487;1.597197;-0.6062176;1.15;-0.5501444;1.189843;
637949754191825428;1087.509;25;5;3;0.2;1.4;2100;1.42857142857143;-0.6893655;1.621553;-0.6437181;1.607904;0.6893654;1.621554;0.6305487;1.597197;
637949754203808121;1088.708;25;5;3;0.2;1.4;1199;2.50208507089241;0.6062179;1.15;0.5553175;1.17224;-0.6893655;1.621553;-0.6437181;1.607904;
637949754219801720;1090.307;25;5;3;0.2;1.4;1600;1.875;-0.4499517;2.036231;-0.4287175;1.997244;0.6062179;1.15;0.5553175;1.17224;
637949754232794644;1091.606;25;5;3;0.2;1.4;1299;2.3094688221709;0.2394144;0.8422153;0.2090212;0.9355435;-0.4499517;2.036231;-0.4287175;1.997244;
637949754261004139;1094.434;25;5;4;0.1;1.4;1290;3.10077519379845;-0.2394138;0.8422151;-0.2118667;0.8453379;0;2.2;-0.004289771;2.152237;
637949754282785663;1096.605;25;5;4;0.1;1.4;2171;1.84246890833717;0.4499513;2.036231;0.4222712;2.032058;-0.2394138;0.8422151;-0.2118667;0.8453379;
637949754297879057;1098.115;25;5;4;0.1;1.4;1509;2.65076209410205;-0.6062176;1.15;-0.5749916;1.181312;0.4499513;2.036231;0.4222712;2.032058;
637949754310871983;1099.414;25;5;4;0.1;1.4;1299;3.07929176289453;0.6893654;1.621554;0.6521007;1.64115;-0.6062176;1.15;-0.5749916;1.181312;
637949754322864955;1100.613;25;5;4;0.1;1.4;1199;3.33611342785655;-0.6893655;1.621553;-0.6867366;1.646209;0.6893654;1.621554;0.6521007;1.64115;
637949754391840485;1107.51;25;5;4;0.1;1.4;6897;0.579962302450341;0.6062179;1.15;0.6288332;1.171231;-0.6893655;1.621553;-0.6867366;1.646209;
637949754405823627;1108.91;25;5;4;0.1;1.4;1399;2.85918513223731;-0.4499517;2.036231;-0.4230124;2.006966;0.6062179;1.15;0.6288332;1.171231;
637949754419816769;1110.309;25;5;4;0.1;1.4;1399;2.85918513223731;0.2394144;0.8422153;0.2172694;0.8672554;-0.4499517;2.036231;-0.4230124;2.006966;
637949754452914226;1113.618;25;5;3.5;0.2;2;1310;2.67175572519084;-0.3420197;0.5603072;-0.3585196;0.6045808;0;2.5;0.02968706;2.45072;
637949754464916931;1114.818;25;5;3.5;0.2;2;1200;2.91666666666667;0.6427875;2.266045;0.6235996;2.218682;-0.3420197;0.5603072;-0.3585196;0.6045808;
637949754474899174;1115.817;25;5;3.5;0.2;2;999;3.5035035035035;-0.8660251;0.9999995;-0.8204798;1.045695;0.6427875;2.266045;0.6235996;2.218682;
637949754487902103;1117.117;25;5;3.5;0.2;2;1300;2.69230769230769;0.9848077;1.673648;0.9289108;1.67299;-0.8660251;0.9999995;-0.8204798;1.045695;
637949754497894350;1118.116;25;5;3.5;0.2;2;999;3.5035035035035;-0.9848078;1.673648;-0.985458;1.67701;0.9848077;1.673648;0.9289108;1.67299;
637949754522879972;1120.615;25;5;3.5;0.2;2;2499;1.40056022408964;0.8660256;1;0.812187;1.052524;-0.9848078;1.673648;-0.985458;1.67701;
637949754546875375;1123.014;25;5;3.5;0.2;2;2399;1.45894122551063;-0.6427882;2.266044;-0.5973879;2.220825;0.8660256;1;0.812187;1.052524;
637949754570860772;1125.413;25;5;3.5;0.2;2;2399;1.45894122551063;0.3420205;0.5603075;0.3322536;0.6228298;-0.6427882;2.266044;-0.5973879;2.220825;
637949754587854601;1127.112;25;5;2;0.6;1.8;799;2.50312891113892;-0.3078177;0.6542765;-0.32904;0.8325502;0;2.4;-0.06104599;2.271057;
637949754596851951;1128.012;25;5;2;0.6;1.8;900;2.22222222222222;0.5785087;2.18944;0.4395545;2.093539;-0.3078177;0.6542765;-0.32904;0.8325502;
637949754612953115;1129.622;25;5;2;0.6;1.8;1610;1.24223602484472;-0.7794226;1.05;-0.6270837;1.235742;0.5785087;2.18944;0.4395545;2.093539;
637949754629946941;1131.322;25;5;2;0.6;1.8;1700;1.17647058823529;0.8863269;1.656283;0.7536436;1.664701;-0.7794226;1.05;-0.6270837;1.235742;
637949754639939189;1132.321;25;5;2;0.6;1.8;999;2.002002002002;-0.8863271;1.656283;-0.8066159;1.683203;0.8863269;1.656283;0.7536436;1.664701;
637949754658932583;1134.22;25;5;2;0.6;1.8;1900;1.05263157894737;0.779423;1.05;0.636249;1.19879;-0.8863271;1.656283;-0.8066159;1.683203;
637949754668931394;1135.22;25;5;2;0.6;1.8;999;2.002002002002;-0.5785094;2.18944;-0.5390524;2.107697;0.779423;1.05;0.636249;1.19879;
637949754679923878;1136.319;25;5;2;0.6;1.8;1099;1.81983621474067;0.3078185;0.6542768;0.2324946;0.8502373;-0.5785094;2.18944;-0.5390524;2.107697;
637949754696917702;1138.018;25;5;1.5;1.1;2;900;1.66666666666667;-0.3420197;0.5603072;-0.2738768;0.9860034;0;2.5;-0.02863521;2.197409;
637949754713906204;1139.718;25;5;1.5;1.1;2;1699;0.882872277810477;0.6427875;2.266045;0.4696839;2.127043;-0.3420197;0.5603072;-0.2738768;0.9860034;
637949754736013793;1141.928;25;5;1.5;1.1;2;2210;0.678733031674208;-0.8660251;0.9999995;-0.6089174;1.291006;0.6427875;2.266045;0.4696839;2.127043;
637949754747007211;1143.027;25;5;1.5;1.1;2;1099;1.36487716105551;0.9848077;1.673648;0.7477323;1.613144;-0.8660251;0.9999995;-0.6089174;1.291006;
637949754756999462;1144.027;25;5;1.5;1.1;2;999;1.5015015015015;-0.9848078;1.673648;-0.680891;1.642177;0.9848077;1.673648;0.7477323;1.613144;
637949754764991259;1144.826;25;5;1.5;1.1;2;800;1.875;0.8660256;1;0.535736;1.147927;-0.9848078;1.673648;-0.680891;1.642177;
637949754772983058;1145.626;25;5;1.5;1.1;2;799;1.87734668335419;-0.6427882;2.266044;-0.5740744;2.164241;0.8660256;1;0.535736;1.147927;
637949754780984858;1146.425;25;5;1.5;1.1;2;800;1.875;0.3420205;0.5603075;0.3446764;0.9358821;-0.6427882;2.266044;-0.5740744;2.164241;
637949755237103257;1192.038;25;6;1.5;1.1;2;600;2.5;-0.3420197;0.5603072;-0.3362498;0.9375341;0;2.5;0.02905942;2.334715;
637949755243104599;1192.637;25;6;1.5;1.1;2;600;2.5;0.6427875;2.266045;0.4472011;2.054228;-0.3420197;0.5603072;-0.3362498;0.9375341;
637949755249105951;1193.237;25;6;1.5;1.1;2;599;2.50417362270451;-0.8660251;0.9999995;-0.7573649;1.147091;0.6427875;2.266045;0.4472011;2.054228;
637949755254097066;1193.737;25;6;1.5;1.1;2;500;3;0.9848077;1.673648;0.5434058;1.636111;-0.8660251;0.9999995;-0.7573649;1.147091;
637949755261098647;1194.436;25;6;1.5;1.1;2;700;2.14285714285714;-0.9848078;1.673648;-0.6607175;1.667099;0.9848077;1.673648;0.5434058;1.636111;
637949755267089997;1195.036;25;6;1.5;1.1;2;600;2.5;0.8660256;1;0.6121266;1.203938;-0.9848078;1.673648;-0.6607175;1.667099;
637949755273091348;1195.636;25;6;1.5;1.1;2;600;2.5;-0.6427882;2.266044;-0.4716299;2.092354;0.8660256;1;0.6121266;1.203938;
637949755278092474;1196.136;25;6;1.5;1.1;2;500;3;0.3420205;0.5603075;0.3802981;0.9960534;-0.6427882;2.266044;-0.4716299;2.092354;
637949755311069898;1199.434;25;6;4;0.1;1.4;2299;1.73988690735102;-0.2394138;0.8422151;-0.2433328;0.8661621;0;2.2;-0.004585126;2.196784;
637949755322072373;1200.534;25;6;4;0.1;1.4;1100;3.63636363636364;0.4499513;2.036231;0.4234944;2.035637;-0.2394138;0.8422151;-0.2433328;0.8661621;
637949755336065526;1201.933;25;6;4;0.1;1.4;1399;2.85918513223731;-0.6062176;1.15;-0.596491;1.154886;0.4499513;2.036231;0.4234944;2.035637;
637949755347057996;1203.033;25;6;4;0.1;1.4;1100;3.63636363636364;0.6893654;1.621554;0.6762084;1.617957;-0.6062176;1.15;-0.596491;1.154886;
637949755370163199;1205.343;25;6;4;0.1;1.4;2310;1.73160173160173;-0.6893655;1.621553;-0.6727104;1.575408;0.6893654;1.621554;0.6762084;1.617957;
637949755385146570;1206.842;25;6;4;0.1;1.4;1499;2.66844563042028;0.6062179;1.15;0.5779009;1.15867;-0.6893655;1.621553;-0.6727104;1.575408;
637949755397140816;1208.041;25;6;4;0.1;1.4;1199;3.33611342785655;-0.4499517;2.036231;-0.464557;2.011959;0.6062179;1.15;0.5779009;1.15867;
637949755417245434;1210.051;25;6;4;0.1;1.4;2010;1.99004975124378;0.2394144;0.8422153;0.2141986;0.8684334;-0.4499517;2.036231;-0.464557;2.011959;
637949755436239711;1211.951;25;6;2.5;0.3;1.4;999;2.5025025025025;-0.2394138;0.8422151;-0.2331401;0.8921244;0;2.2;0.01406425;2.232071;
637949755445233577;1212.85;25;6;2.5;0.3;1.4;900;2.77777777777778;0.4499513;2.036231;0.5087723;2.014222;-0.2394138;0.8422151;-0.2331401;0.8921244;
637949755455230711;1213.85;25;6;2.5;0.3;1.4;999;2.5025025025025;-0.6062176;1.15;-0.5883228;1.186982;0.4499513;2.036231;0.5087723;2.014222;
637949755463222508;1214.65;25;6;2.5;0.3;1.4;800;3.125;0.6893654;1.621554;0.5701076;1.63397;-0.6062176;1.15;-0.5883228;1.186982;
637949755471224318;1215.449;25;6;2.5;0.3;1.4;799;3.12891113892365;-0.6893655;1.621553;-0.7767339;1.621965;0.6893654;1.621554;0.5701076;1.63397;
637949755480216339;1216.349;25;6;2.5;0.3;1.4;900;2.77777777777778;0.6062179;1.15;0.4999136;1.150411;-0.6893655;1.621553;-0.7767339;1.621965;
637949755497320188;1218.059;25;6;2.5;0.3;1.4;1710;1.46198830409357;-0.4499517;2.036231;-0.4209796;2.113576;0.6062179;1.15;0.4999136;1.150411;
637949755507312439;1219.058;25;6;2.5;0.3;1.4;1000;2.5;0.2394144;0.8422153;0.2167319;0.888008;-0.4499517;2.036231;-0.4209796;2.113576;
637949755532298062;1221.557;25;6;3;0.2;1.4;1499;2.00133422281521;-0.2394138;0.8422151;-0.1970083;0.920012;0;2.2;-0.002716181;2.152798;
637949755542300315;1222.557;25;6;3;0.2;1.4;1000;3;0.4499513;2.036231;0.3961215;1.99381;-0.2394138;0.8422151;-0.1970083;0.920012;
637949755551292336;1223.456;25;6;3;0.2;1.4;900;3.33333333333333;-0.6062176;1.15;-0.5819179;1.208887;0.4499513;2.036231;0.3961215;1.99381;
637949755560294365;1224.356;25;6;3;0.2;1.4;900;3.33333333333333;0.6893654;1.621554;0.6656905;1.558254;-0.6062176;1.15;-0.5819179;1.208887;
637949755571286837;1225.455;25;6;3;0.2;1.4;1099;2.72975432211101;-0.6893655;1.621553;-0.6515551;1.565;0.6893654;1.621554;0.6656905;1.558254;
637949755583279542;1226.655;25;6;3;0.2;1.4;1200;2.5;0.6062179;1.15;0.5727327;1.176804;-0.6893655;1.621553;-0.6515551;1.565;
637949755601273588;1228.454;25;6;3;0.2;1.4;1799;1.66759310728182;-0.4499517;2.036231;-0.4226683;1.960612;0.6062179;1.15;0.5727327;1.176804;
637949755626259210;1230.953;25;6;3;0.2;1.4;2499;1.20048019207683;0.2394144;0.8422153;0.2569154;0.8633356;-0.4499517;2.036231;-0.4226683;1.960612;
637949755689343410;1237.261;25;6;4.5;0.1;2.2;3398;1.32430841671572;-0.3762217;0.4663379;-0.3592757;0.4873047;0;2.6;-0.00501689;2.556495;
637949755708337684;1239.16;25;6;4.5;0.1;2.2;1899;2.3696682464455;0.7070663;2.342649;0.6640882;2.31788;-0.3762217;0.4663379;-0.3592757;0.4873047;
637949755731332858;1241.46;25;6;4.5;0.1;2.2;2300;1.95652173913044;-0.9526277;0.9499994;-0.9381198;0.9165874;0.7070663;2.342649;0.6640882;2.31788;
637949755762312275;1244.557;25;6;4.5;0.1;2.2;3097;1.45301905069422;1.083289;1.691013;1.051375;1.674165;-0.9526277;0.9499994;-0.9381198;0.9165874;
637949755781306550;1246.457;25;6;4.5;0.1;2.2;1899;2.3696682464455;-1.083289;1.691012;-1.052555;1.698995;1.083289;1.691013;1.051375;1.674165;
637949755800568924;1248.392;25;6;4.5;0.1;2.2;1935;2.32558139534884;0.9526281;0.9500003;0.9060518;0.9380594;-1.083289;1.691012;-1.052555;1.698995;
637949755815398443;1249.866;25;6;4.5;0.1;2.2;1475;3.05084745762712;-0.7070671;2.342648;-0.7017248;2.299289;0.9526281;0.9500003;0.9060518;0.9380594;
637949755829391595;1251.266;25;6;4.5;0.1;2.2;1399;3.21658327376698;0.3762226;0.4663382;0.3580269;0.4855677;-0.7070671;2.342648;-0.7017248;2.299289;
637949755843384745;1252.665;25;6;2;0.6;1.8;600;3.33333333333333;-0.3078177;0.6542765;-0.142422;0.7514123;0;2.4;-0.04712467;2.169681;
637949755851376541;1253.465;25;6;2;0.6;1.8;800;2.5;0.5785087;2.18944;0.4580536;2.092433;-0.3078177;0.6542765;-0.142422;0.7514123;
637949755858378120;1254.164;25;6;2;0.6;1.8;699;2.86123032904149;-0.7794226;1.05;-0.7061315;1.146763;0.5785087;2.18944;0.4580536;2.092433;
637949755889355088;1257.263;25;6;2;0.6;1.8;3099;0.645369474023879;0.8863269;1.656283;0.8423101;1.646683;-0.7794226;1.05;-0.7061315;1.146763;
637949755898357118;1258.163;25;6;2;0.6;1.8;900;2.22222222222222;-0.8863271;1.656283;-0.7486214;1.624275;0.8863269;1.656283;0.8423101;1.646683;
637949755906348918;1258.962;25;6;2;0.6;1.8;799;2.50312891113892;0.779423;1.05;0.750595;1.219681;-0.8863271;1.656283;-0.7486214;1.624275;
637949755916351165;1259.962;25;6;2;0.6;1.8;1000;2;-0.5785094;2.18944;-0.6107398;2.117058;0.779423;1.05;0.750595;1.219681;
637949755926343410;1260.961;25;6;2;0.6;1.8;999;2.002002002002;0.3078185;0.6542768;0.2876424;0.9133778;-0.5785094;2.18944;-0.6107398;2.117058;
637949755948338366;1263.16;25;6;3.5;0.2;2;1100;3.18181818181818;-0.3420197;0.5603072;-0.3208748;0.616925;0;2.5;0.01159405;2.451815;
637949755962431536;1264.571;25;6;3.5;0.2;2;1410;2.4822695035461;0.6427875;2.266045;0.5981904;2.266247;-0.3420197;0.5603072;-0.3208748;0.616925;
637949755975434465;1265.87;25;6;3.5;0.2;2;1300;2.69230769230769;-0.8660251;0.9999995;-0.7842271;0.966321;0.6427875;2.266045;0.5981904;2.266247;
637949755987427167;1267.07;25;6;3.5;0.2;2;1199;2.91909924937448;0.9848077;1.673648;1.005727;1.719829;-0.8660251;0.9999995;-0.7842271;0.966321;
637949755998419638;1268.169;25;6;3.5;0.2;2;1099;3.18471337579618;-0.9848078;1.673648;-1.036965;1.691673;0.9848077;1.673648;1.005727;1.719829;
637949756024405486;1270.768;25;6;3.5;0.2;2;2599;1.34667179684494;0.8660256;1;0.8665713;1.059266;-0.9848078;1.673648;-1.036965;1.691673;
637949756039398861;1272.267;25;6;3.5;0.2;2;1499;2.33488992661775;-0.6427882;2.266044;-0.5643052;2.24633;0.8660256;1;0.8665713;1.059266;
637949756056392686;1273.966;25;6;3.5;0.2;2;1699;2.06003531489111;0.3420205;0.5603075;0.3354526;0.5993811;-0.6427882;2.266044;-0.5643052;2.24633;
637949756450651083;1313.392;25;7;3;0.2;1.4;900;3.33333333333333;-0.2394138;0.8422151;-0.1882884;0.8198643;0;2.2;-0.03979338;2.137889;
637949756461653563;1314.492;25;7;3;0.2;1.4;1100;2.72727272727273;0.4499513;2.036231;0.4072075;2.065281;-0.2394138;0.8422151;-0.1882884;0.8198643;
637949756475636706;1315.891;25;7;3;0.2;1.4;1399;2.14438884917798;-0.6062176;1.15;-0.5572731;1.171057;0.4499513;2.036231;0.4072075;2.065281;
637949756485638955;1316.891;25;7;3;0.2;1.4;1000;3;0.6893654;1.621554;0.6337991;1.637787;-0.6062176;1.15;-0.5572731;1.171057;
637949756494630982;1317.79;25;7;3;0.2;1.4;900;3.33333333333333;-0.6893655;1.621553;-0.6021988;1.64701;0.6893654;1.621554;0.6337991;1.637787;
637949756503633011;1318.69;25;7;3;0.2;1.4;899;3.33704115684093;0.6062179;1.15;0.586306;1.16791;-0.6893655;1.621553;-0.6021988;1.64701;
637949756525617958;1320.889;25;7;3;0.2;1.4;2199;1.36425648021828;-0.4499517;2.036231;-0.414566;1.98926;0.6062179;1.15;0.586306;1.16791;
637949756536610423;1321.988;25;7;3;0.2;1.4;1099;2.72975432211101;0.2394144;0.8422153;0.2163465;0.9206827;-0.4499517;2.036231;-0.414566;1.98926;
637949756563606510;1324.687;25;7;2;0.6;1.8;1899;1.05318588730911;-0.3078177;0.6542765;-0.3004305;0.8384655;0;2.4;0.01882967;2.267888;
637949756571601339;1325.487;25;7;2;0.6;1.8;799;2.50312891113892;0.5785087;2.18944;0.5411683;1.989797;-0.3078177;0.6542765;-0.3004305;0.8384655;
637949756578602999;1326.187;25;7;2;0.6;1.8;700;2.85714285714286;-0.7794226;1.05;-0.7687328;1.100914;0.5785087;2.18944;0.5411683;1.989797;
637949756586594796;1326.986;25;7;2;0.6;1.8;799;2.50312891113892;0.8863269;1.656283;0.7658721;1.592767;-0.7794226;1.05;-0.7687328;1.100914;
637949756604693634;1328.796;25;7;2;0.6;1.8;1810;1.10497237569061;-0.8863271;1.656283;-0.7747693;1.646756;0.8863269;1.656283;0.7658721;1.592767;
637949756612690290;1329.596;25;7;2;0.6;1.8;800;2.5;0.779423;1.05;0.7770662;1.126387;-0.8863271;1.656283;-0.7747693;1.646756;
637949756621682316;1330.496;25;7;2;0.6;1.8;900;2.22222222222222;-0.5785094;2.18944;-0.50877;2.095661;0.779423;1.05;0.7770662;1.126387;
637949756628693890;1331.196;25;7;2;0.6;1.8;701;2.85306704707561;0.3078185;0.6542768;0.2273802;0.7659703;-0.5785094;2.18944;-0.50877;2.095661;
637949756649668613;1333.294;25;7;3.5;0.2;2;1100;3.18181818181818;-0.3420197;0.5603072;-0.3204097;0.6427892;0;2.5;0.02069196;2.448834;
637949756670663340;1335.393;25;7;3.5;0.2;2;2099;1.66746069556932;0.6427875;2.266045;0.6266071;2.193594;-0.3420197;0.5603072;-0.3204097;0.6427892;
637949756683656264;1336.693;25;7;3.5;0.2;2;1299;2.69438029253272;-0.8660251;0.9999995;-0.7793752;1.049764;0.6427875;2.266045;0.6266071;2.193594;
637949756705651216;1338.891;25;7;3.5;0.2;2;2199;1.59163256025466;0.9848077;1.673648;0.9421383;1.63527;-0.8660251;0.9999995;-0.7793752;1.049764;
637949756718634133;1340.191;25;7;3.5;0.2;2;1299;2.69438029253272;-0.9848078;1.673648;-0.9172734;1.640768;0.9848077;1.673648;0.9421383;1.63527;
637949756729636612;1341.291;25;7;3.5;0.2;2;1100;3.18181818181818;0.8660256;1;0.8003747;0.9798013;-0.9848078;1.673648;-0.9172734;1.640768;
637949756741639313;1342.49;25;7;3.5;0.2;2;1199;2.91909924937448;-0.6427882;2.266044;-0.6404633;2.173029;0.8660256;1;0.8003747;0.9798013;
637949756751631564;1343.49;25;7;3.5;0.2;2;999;3.5035035035035;0.3420205;0.5603075;0.3230188;0.5770947;-0.6427882;2.266044;-0.6404633;2.173029;
637949756787719685;1347.099;25;7;4;0.1;1.4;1599;2.50156347717323;-0.2394138;0.8422151;-0.2229141;0.8692523;0;2.2;-0.008625132;2.163057;
637949756805713735;1348.898;25;7;4;0.1;1.4;1799;2.22345747637576;0.4499513;2.036231;0.4224358;2.025078;-0.2394138;0.8422151;-0.2229141;0.8692523;
637949756820707110;1350.397;25;7;4;0.1;1.4;1499;2.66844563042028;-0.6062176;1.15;-0.591157;1.139884;0.4499513;2.036231;0.4224358;2.025078;
637949756833700034;1351.697;25;7;4;0.1;1.4;1299;3.07929176289453;0.6893654;1.621554;0.6619164;1.614997;-0.6062176;1.15;-0.591157;1.139884;
637949756844692517;1352.796;25;7;4;0.1;1.4;1099;3.63967242948135;-0.6893655;1.621553;-0.6702332;1.591981;0.6893654;1.621554;0.6619164;1.614997;
637949756856685209;1353.996;25;7;4;0.1;1.4;1200;3.33333333333333;0.6062179;1.15;0.569604;1.146817;-0.6893655;1.621553;-0.6702332;1.591981;
637949756869688136;1355.295;25;7;4;0.1;1.4;1299;3.07929176289453;-0.4499517;2.036231;-0.4476742;2.011333;0.6062179;1.15;0.569604;1.146817;
637949756881680835;1356.495;25;7;4;0.1;1.4;1199;3.33611342785655;0.2394144;0.8422153;0.2210963;0.8849868;-0.4499517;2.036231;-0.4476742;2.011333;
637949756906771920;1359.004;25;7;2.5;0.3;1.4;811;3.0826140567201;-0.2394138;0.8422151;-0.1858516;0.9307005;0;2.2;0.01830144;2.132488;
637949756914773723;1359.804;25;7;2.5;0.3;1.4;800;3.125;0.4499513;2.036231;0.4385839;2.006962;-0.2394138;0.8422151;-0.1858516;0.9307005;
637949756921765372;1360.504;25;7;2.5;0.3;1.4;700;3.57142857142857;-0.6062176;1.15;-0.5852677;1.212622;0.4499513;2.036231;0.4385839;2.006962;
637949756929761196;1361.303;25;7;2.5;0.3;1.4;800;3.125;0.6893654;1.621554;0.6228045;1.605834;-0.6062176;1.15;-0.5852677;1.212622;
637949756936761111;1362.003;25;7;2.5;0.3;1.4;700;3.57142857142857;-0.6893655;1.621553;-0.6139544;1.620035;0.6893654;1.621554;0.6228045;1.605834;
637949756944761504;1362.803;25;7;2.5;0.3;1.4;800;3.125;0.6062179;1.15;0.5547775;1.185584;-0.6893655;1.621553;-0.6139544;1.620035;
637949756952747128;1363.602;25;7;2.5;0.3;1.4;799;3.12891113892365;-0.4499517;2.036231;-0.3821297;1.941491;0.6062179;1.15;0.5547775;1.185584;
637949756966750280;1365.002;25;7;2.5;0.3;1.4;1400;1.78571428571429;0.2394144;0.8422153;0.164881;0.9212872;-0.4499517;2.036231;-0.3821297;1.941491;
637949756995736800;1367.9;25;7;1.5;1.1;2;1199;1.25104253544621;-0.3420197;0.5603072;-0.1029927;1.01508;0;2.5;0.01763534;2.139529;
637949757008729729;1369.2;25;7;1.5;1.1;2;1299;1.15473441108545;0.6427875;2.266045;0.3326871;2.033994;-0.3420197;0.5603072;-0.1029927;1.01508;
637949757016721525;1370;25;7;1.5;1.1;2;800;1.875;-0.8660251;0.9999995;-0.5159891;1.274877;0.6427875;2.266045;0.3326871;2.033994;
637949757022722876;1370.599;25;7;1.5;1.1;2;600;2.5;0.9848077;1.673648;0.6028363;1.71605;-0.8660251;0.9999995;-0.5159891;1.274877;
637949757028724227;1371.199;25;7;1.5;1.1;2;600;2.5;-0.9848078;1.673648;-0.6014383;1.669832;0.9848077;1.673648;0.6028363;1.71605;
637949757035715800;1371.898;25;7;1.5;1.1;2;699;2.14592274678112;0.8660256;1;0.6398255;1.204713;-0.9848078;1.673648;-0.6014383;1.669832;
637949757050819200;1373.409;25;7;1.5;1.1;2;1510;0.993377483443709;-0.6427882;2.266044;-0.3202061;1.97899;0.8660256;1;0.6398255;1.204713;
637949757057820776;1374.109;25;7;1.5;1.1;2;700;2.14285714285714;0.3420205;0.5603075;0.05157997;0.9765114;-0.6427882;2.266044;-0.3202061;1.97899;
637949757088797747;1377.207;25;7;4.5;0.1;2.2;1707;2.63620386643234;-0.3762217;0.4663379;-0.3678307;0.5067558;0;2.6;0.01333899;2.5781;
637949757101800676;1378.507;25;7;4.5;0.1;2.2;1300;3.46153846153846;0.7070663;2.342649;0.693057;2.307884;-0.3762217;0.4663379;-0.3678307;0.5067558;
637949757122795398;1380.607;25;7;4.5;0.1;2.2;2100;2.14285714285714;-0.9526277;0.9499994;-0.9271531;0.9852772;0.7070663;2.342649;0.693057;2.307884;
637949757162874420;1384.615;25;7;4.5;0.1;2.2;4008;1.12275449101796;1.083289;1.691013;1.041337;1.679191;-0.9526277;0.9499994;-0.9271531;0.9852772;
637949757178878025;1386.215;25;7;4.5;0.1;2.2;1600;2.8125;-1.083289;1.691012;-1.065972;1.701717;1.083289;1.691013;1.041337;1.679191;
637949757208884775;1389.215;25;7;4.5;0.1;2.2;3000;1.5;0.9526281;0.9500003;0.9876271;0.9534832;-1.083289;1.691012;-1.065972;1.701717;
637949757226963981;1391.023;25;7;4.5;0.1;2.2;1808;2.48893805309735;-0.7070671;2.342648;-0.6650818;2.316833;0.9526281;0.9500003;0.9876271;0.9534832;
637949757250945114;1393.422;25;7;4.5;0.1;2.2;2399;1.87578157565652;0.3762226;0.4663382;0.3598271;0.452618;-0.7070671;2.342648;-0.6650818;2.316833;
