637950522183110014;137.7646;26;0;4.5;0.1;2.2;1833;2.45499181669394;-0.3762217;0.4663379;-0.3893894;0.4273878;0;2.6;-0.00413741;2.580211;
637950522227820045;142.2289;26;0;4.5;0.1;2.2;4464;1.00806451612903;0.7070663;2.342649;0.6921649;2.32943;-0.3762217;0.4663379;-0.3893894;0.4273878;
637950522261807673;145.6272;26;0;4.5;0.1;2.2;3398;1.32430841671572;-0.9526277;0.9499994;-0.9343188;0.9898981;0.7070663;2.342649;0.6921649;2.32943;
637950522279791704;147.4264;26;0;4.5;0.1;2.2;1799;2.50138966092273;1.083289;1.691013;1.078784;1.691872;-0.9526277;0.9499994;-0.9343188;0.9898981;
637950522294786857;148.9261;26;0;4.5;0.1;2.2;1500;3;-1.083289;1.691012;-1.052695;1.695026;1.083289;1.691013;1.078784;1.691872;
637950522310890472;150.5361;26;0;4.5;0.1;2.2;1610;2.79503105590062;0.9526281;0.9500003;0.9642764;0.956735;-1.083289;1.691012;-1.052695;1.695026;
637950522327884287;152.2356;26;0;4.5;0.1;2.2;1699;2.64861683343143;-0.7070671;2.342648;-0.7017351;2.360346;0.9526281;0.9500003;0.9642764;0.956735;
637950522347867597;154.2344;26;0;4.5;0.1;2.2;1999;2.25112556278139;0.3762226;0.4663382;0.3497105;0.4986089;-0.7070671;2.342648;-0.7017351;2.360346;
637950522377863287;157.233;26;0;3.5;0.2;2;1599;2.18886804252658;-0.3420197;0.5603072;-0.3415538;0.6255436;0;2.5;-0.0237774;2.49677;
637950522391856425;158.6323;26;0;3.5;0.2;2;1399;2.50178699070765;0.6427875;2.266045;0.6691446;2.231085;-0.3420197;0.5603072;-0.3415538;0.6255436;
637950522407850014;160.2316;26;0;3.5;0.2;2;1599;2.18886804252658;-0.8660251;0.9999995;-0.8175876;1.063392;0.6427875;2.266045;0.6691446;2.231085;
637950522433835845;162.8307;26;0;3.5;0.2;2;2599;1.34667179684494;0.9848077;1.673648;0.9521438;1.673546;-0.8660251;0.9999995;-0.8175876;1.063392;
637950522451939911;164.6406;26;0;3.5;0.2;2;1810;1.93370165745856;-0.9848078;1.673648;-0.9598989;1.675678;0.9848077;1.673648;0.9521438;1.673546;
637950522472924629;166.7398;26;0;3.5;0.2;2;2099;1.66746069556932;0.8660256;1;0.8563908;1.065042;-0.9848078;1.673648;-0.9598989;1.675678;
637950522492919107;168.7388;26;0;3.5;0.2;2;1999;1.75087543771886;-0.6427882;2.266044;-0.5741361;2.233063;0.8660256;1;0.8563908;1.065042;
637950522514904040;170.9378;26;0;3.5;0.2;2;2199;1.59163256025466;0.3420205;0.5603075;0.335297;0.604678;-0.6427882;2.266044;-0.5741361;2.233063;
637950522542900325;173.7366;26;0;3;0.2;1.4;1299;2.3094688221709;-0.2394138;0.8422151;-0.1940468;0.8804522;0;2.2;-0.002741931;2.199815;
637950522560884363;175.5357;26;0;3;0.2;1.4;1799;1.66759310728182;0.4499513;2.036231;0.4274022;2.035467;-0.2394138;0.8422151;-0.1940468;0.8804522;
637950522574877500;176.935;26;0;3;0.2;1.4;1399;2.14438884917798;-0.6062176;1.15;-0.5788154;1.181264;0.4499513;2.036231;0.4274022;2.035467;
637950522585879970;178.0348;26;0;3;0.2;1.4;1100;2.72727272727273;0.6893654;1.621554;0.685115;1.66559;-0.6062176;1.15;-0.5788154;1.181264;
637950522595872214;179.0341;26;0;3;0.2;1.4;999;3.003003003003;-0.6893655;1.621553;-0.645236;1.606415;0.6893654;1.621554;0.685115;1.66559;
637950522608975146;180.3445;26;0;3;0.2;1.4;1310;2.29007633587786;0.6062179;1.15;0.5856714;1.188972;-0.6893655;1.621553;-0.645236;1.606415;
637950522622968293;181.7438;26;0;3;0.2;1.4;1399;2.14438884917798;-0.4499517;2.036231;-0.4291067;2.04283;0.6062179;1.15;0.5856714;1.188972;
637950522643963006;183.843;26;0;3;0.2;1.4;2099;1.4292520247737;0.2394144;0.8422153;0.2386;0.9001969;-0.4499517;2.036231;-0.4291067;2.04283;
637950522684942225;187.9409;26;0;2;0.6;1.8;2399;0.833680700291788;-0.3078177;0.6542765;-0.2520511;0.6939489;0;2.4;0.005356174;2.375863;
637950522698930808;189.3404;26;0;2;0.6;1.8;1400;1.42857142857143;0.5785087;2.18944;0.5660416;2.075165;-0.3078177;0.6542765;-0.2520511;0.6939489;
637950522708931272;190.34;26;0;2;0.6;1.8;1000;2;-0.7794226;1.05;-0.7883287;1.094961;0.5785087;2.18944;0.5660416;2.075165;
637950522718921321;191.3394;26;0;2;0.6;1.8;999;2.002002002002;0.8863269;1.656283;0.6604753;1.614752;-0.7794226;1.05;-0.7883287;1.094961;
637950522730924021;192.5388;26;0;2;0.6;1.8;1199;1.66805671392827;-0.8863271;1.656283;-0.8191334;1.738861;0.8863269;1.656283;0.6604753;1.614752;
637950522744917162;193.9382;26;0;2;0.6;1.8;1399;1.42959256611866;0.779423;1.05;0.7382885;1.228036;-0.8863271;1.656283;-0.8191334;1.738861;
637950522755909629;195.038;26;0;2;0.6;1.8;1100;1.81818181818182;-0.5785094;2.18944;-0.3580416;2.070176;0.779423;1.05;0.7382885;1.228036;
637950522769012569;196.3483;26;0;2;0.6;1.8;1310;1.52671755725191;0.3078185;0.6542768;0.200752;0.8936771;-0.5785094;2.18944;-0.3580416;2.070176;
637950522798999300;199.3469;26;0;4;0.1;1.4;2099;1.90566936636494;-0.2394138;0.8422151;-0.1960945;0.8275378;0;2.2;0.04179292;2.177448;
637950522816993337;201.146;26;0;4;0.1;1.4;1799;2.22345747637576;0.4499513;2.036231;0.470033;2.065409;-0.2394138;0.8422151;-0.1960945;0.8275378;
637950522836977821;203.145;26;0;4;0.1;1.4;1999;2.00100050025012;-0.6062176;1.15;-0.5773225;1.165827;0.4499513;2.036231;0.470033;2.065409;
637950522858972759;205.3442;26;0;4;0.1;1.4;2199;1.81900864029104;0.6893654;1.621554;0.6703492;1.603724;-0.6062176;1.15;-0.5773225;1.165827;
637950522873966124;206.8433;26;0;4;0.1;1.4;1499;2.66844563042028;-0.6893655;1.621553;-0.6511781;1.612694;0.6893654;1.621554;0.6703492;1.603724;
637950522891950160;208.6425;26;0;4;0.1;1.4;1799;2.22345747637576;0.6062179;1.15;0.5751735;1.161248;-0.6893655;1.621553;-0.6511781;1.612694;
637950522928058260;212.2521;26;0;4;0.1;1.4;3610;1.10803324099723;-0.4499517;2.036231;-0.4373603;2.032861;0.6062179;1.15;0.5751735;1.161248;
637950522948042749;214.2511;26;0;4;0.1;1.4;1999;2.00100050025012;0.2394144;0.8422153;0.2695452;0.8388945;-0.4499517;2.036231;-0.4373603;2.032861;
637950522979029703;217.3497;26;0;1.5;1.1;2;1599;0.938086303939963;-0.3420197;0.5603072;-0.22388;0.8613944;0;2.5;0.00642848;2.371894;
637950522993022846;218.749;26;0;1.5;1.1;2;1399;1.07219442458899;0.6427875;2.266045;0.4108013;2.174942;-0.3420197;0.5603072;-0.22388;0.8613944;
637950523009013431;220.3481;26;0;1.5;1.1;2;1599;0.938086303939963;-0.8660251;0.9999995;-0.7773032;1.284114;0.6427875;2.266045;0.4108013;2.174942;
637950523023006568;221.7475;26;0;1.5;1.1;2;1399;1.07219442458899;0.9848077;1.673648;0.716498;1.741094;-0.8660251;0.9999995;-0.7773032;1.284114;
637950523035117308;222.9583;26;0;1.5;1.1;2;1211;1.23864574731627;-0.9848078;1.673648;-0.6762424;1.69482;0.9848077;1.673648;0.716498;1.741094;
637950523047099996;224.1574;26;0;1.5;1.1;2;1199;1.25104253544621;0.8660256;1;0.7170843;1.100633;-0.9848078;1.673648;-0.6762424;1.69482;
637950523061103132;225.5569;26;0;1.5;1.1;2;1399;1.07219442458899;-0.6427882;2.266044;-0.5297124;2.167594;0.8660256;1;0.7170843;1.100633;
637950523074096055;226.8562;26;0;1.5;1.1;2;1299;1.15473441108545;0.3420205;0.5603075;0.1872084;0.8568342;-0.6427882;2.266044;-0.5297124;2.167594;
637950523104082785;229.8549;26;0;2.5;0.3;1.4;1399;1.78699070764832;-0.2394138;0.8422151;-0.1665735;0.8434327;0;2.2;-0.006350636;2.183061;
637950523118075924;231.2543;26;0;2.5;0.3;1.4;1399;1.78699070764832;0.4499513;2.036231;0.3526857;2.029382;-0.2394138;0.8422151;-0.1665735;0.8434327;
637950523130068617;232.4539;26;0;2.5;0.3;1.4;1200;2.08333333333333;-0.6062176;1.15;-0.5830408;1.208644;0.4499513;2.036231;0.3526857;2.029382;
637950523142061310;233.6533;26;0;2.5;0.3;1.4;1199;2.08507089241034;0.6893654;1.621554;0.6082298;1.642628;-0.6062176;1.15;-0.5830408;1.208644;
637950523153053776;234.7527;26;0;2.5;0.3;1.4;1099;2.27479526842584;-0.6893655;1.621553;-0.6365882;1.638469;0.6893654;1.621554;0.6082298;1.642628;
637950523164044222;235.8521;26;0;2.5;0.3;1.4;1099;2.27479526842584;0.6062179;1.15;0.572408;1.251083;-0.6893655;1.621553;-0.6365882;1.638469;
637950523178042785;237.2515;26;0;2.5;0.3;1.4;1399;1.78699070764832;-0.4499517;2.036231;-0.3914285;1.986475;0.6062179;1.15;0.572408;1.251083;
637950523193152501;238.7619;26;0;2.5;0.3;1.4;1510;1.65562913907285;0.2394144;0.8422153;0.2031106;0.8976806;-0.4499517;2.036231;-0.3914285;1.986475;
637950524133396237;332.7851;26;1;3;0.2;1.4;1000;3;-0.2394138;0.8422151;-0.1882129;0.7880365;0;2.2;-0.01483129;2.186;
637950524144758789;333.9281;26;1;3;0.2;1.4;1143;2.6246719160105;0.4499513;2.036231;0.529099;2.092135;-0.2394138;0.8422151;-0.1882129;0.7880365;
637950524166483662;336.0946;26;1;3;0.2;1.4;2167;1.38440239963083;-0.6062176;1.15;-0.5732965;1.189243;0.4499513;2.036231;0.529099;2.092135;
637950524178486360;337.2939;26;1;3;0.2;1.4;1199;2.50208507089241;0.6893654;1.621554;0.6944451;1.712821;-0.6062176;1.15;-0.5732965;1.189243;
637950524190479050;338.4933;26;1;3;0.2;1.4;1199;2.50208507089241;-0.6893655;1.621553;-0.6255629;1.573657;0.6893654;1.621554;0.6944451;1.712821;
637950524203471966;339.7929;26;1;3;0.2;1.4;1300;2.30769230769231;0.6062179;1.15;0.5334198;1.211809;-0.6893655;1.621553;-0.6255629;1.573657;
637950524217695159;341.2218;26;1;3;0.2;1.4;1429;2.09937018894332;-0.4499517;2.036231;-0.3880044;1.960823;0.6062179;1.15;0.5334198;1.211809;
637950524228467577;342.2919;26;1;3;0.2;1.4;1070;2.80373831775701;0.2394144;0.8422153;0.1795985;0.8898834;-0.4499517;2.036231;-0.3880044;1.960823;
637950524251452734;344.5907;26;1;2;0.6;1.8;1199;1.66805671392827;-0.3078177;0.6542765;-0.2228545;0.8286762;0;2.4;0.04931462;2.188157;
637950524263445425;345.7899;26;1;2;0.6;1.8;1199;1.66805671392827;0.5785087;2.18944;0.4648199;2.093874;-0.3078177;0.6542765;-0.2228545;0.8286762;
637950524273438297;346.7895;26;1;2;0.6;1.8;999;2.002002002002;-0.7794226;1.05;-0.6267726;1.103436;0.5785087;2.18944;0.4648199;2.093874;
637950524282440316;347.6892;26;1;2;0.6;1.8;900;2.22222222222222;0.8863269;1.656283;0.6790513;1.646788;-0.7794226;1.05;-0.6267726;1.103436;
637950524292432561;348.6889;26;1;2;0.6;1.8;1000;2;-0.8863271;1.656283;-0.6866571;1.614631;0.8863269;1.656283;0.6790513;1.646788;
637950524303433301;349.7883;26;1;2;0.6;1.8;1099;1.81983621474067;0.779423;1.05;0.5779283;1.055854;-0.8863271;1.656283;-0.6866571;1.614631;
637950524313533746;350.7989;26;1;2;0.6;1.8;1011;1.9782393669634;-0.5785094;2.18944;-0.3736394;2.046972;0.779423;1.05;0.5779283;1.055854;
637950524324527078;351.8985;26;1;2;0.6;1.8;1100;1.81818181818182;0.3078185;0.6542768;0.1790131;0.7713784;-0.5785094;2.18944;-0.3736394;2.046972;
637950524344513971;353.8973;26;1;1.5;1.1;2;999;1.5015015015015;-0.3420197;0.5603072;-0.182147;0.9834481;0;2.5;0.05669708;2.175631;
637950524355515405;354.9969;26;1;1.5;1.1;2;1100;1.36363636363636;0.6427875;2.266045;0.3594524;1.996688;-0.3420197;0.5603072;-0.182147;0.9834481;
637950524365505231;355.9965;26;1;1.5;1.1;2;1000;1.5;-0.8660251;0.9999995;-0.5710358;1.250524;0.6427875;2.266045;0.3594524;1.996688;
637950524375505075;356.996;26;1;1.5;1.1;2;1000;1.5;0.9848077;1.673648;0.6270081;1.816755;-0.8660251;0.9999995;-0.5710358;1.250524;
637950524384504810;357.8956;26;1;1.5;1.1;2;900;1.66666666666667;-0.9848078;1.673648;-0.6916959;1.732808;0.9848077;1.673648;0.6270081;1.816755;
637950524395495945;358.9949;26;1;1.5;1.1;2;1099;1.36487716105551;0.8660256;1;0.6771646;1.315156;-0.9848078;1.673648;-0.6916959;1.732808;
637950524406488411;360.0945;26;1;1.5;1.1;2;1100;1.36363636363636;-0.6427882;2.266044;-0.5824354;1.962634;0.8660256;1;0.6771646;1.315156;
637950524417600909;361.2051;26;1;1.5;1.1;2;1111;1.35013501350135;0.3420205;0.5603075;0.2710869;0.8667949;-0.6427882;2.266044;-0.5824354;1.962634;
637950524472573243;366.7027;26;1;4.5;0.1;2.2;2399;1.87578157565652;-0.3762217;0.4663379;-0.3519509;0.4728872;0;2.6;0.003171514;2.577192;
637950524493557953;368.8016;26;1;4.5;0.1;2.2;2099;2.14387803716055;0.7070663;2.342649;0.7419597;2.338041;-0.3762217;0.4663379;-0.3519509;0.4728872;
637950524509551542;370.4008;26;1;4.5;0.1;2.2;1599;2.81425891181989;-0.9526277;0.9499994;-0.9873092;0.9421496;0.7070663;2.342649;0.7419597;2.338041;
637950524524774959;371.9294;26;1;4.5;0.1;2.2;1529;2.94310006540222;1.083289;1.691013;1.034836;1.679325;-0.9526277;0.9499994;-0.9873092;0.9421496;
637950524549530514;374.3991;26;1;4.5;0.1;2.2;2470;1.82186234817814;-1.083289;1.691012;-1.067394;1.694757;1.083289;1.691013;1.034836;1.679325;
637950524571525452;376.598;26;1;4.5;0.1;2.2;2199;2.04638472032742;0.9526281;0.9500003;0.9294724;0.9691197;-1.083289;1.691012;-1.067394;1.694757;
637950524590629738;378.5081;26;1;4.5;0.1;2.2;1910;2.35602094240838;-0.7070671;2.342648;-0.7210468;2.347623;0.9526281;0.9500003;0.9294724;0.9691197;
637950524616615573;381.1071;26;1;4.5;0.1;2.2;2599;1.73143516737207;0.3762226;0.4663382;0.3757722;0.5073463;-0.7070671;2.342648;-0.7210468;2.347623;
637950524636610061;383.1061;26;1;2.5;0.3;1.4;800;3.125;-0.2394138;0.8422151;-0.1883796;0.8257746;0;2.2;0.01875837;2.292265;
637950524646602302;384.1056;26;1;2.5;0.3;1.4;1000;2.5;0.4499513;2.036231;0.3947156;2.107424;-0.2394138;0.8422151;-0.1883796;0.8257746;
637950524658594995;385.305;26;1;2.5;0.3;1.4;1199;2.08507089241034;-0.6062176;1.15;-0.5676082;1.27784;0.4499513;2.036231;0.3947156;2.107424;
637950524667592087;386.2046;26;1;2.5;0.3;1.4;900;2.77777777777778;0.6893654;1.621554;0.7357026;1.615281;-0.6062176;1.15;-0.5676082;1.27784;
637950524681581948;387.604;26;1;2.5;0.3;1.4;1399;1.78699070764832;-0.6893655;1.621553;-0.6712322;1.654955;0.6893654;1.621554;0.7357026;1.615281;
637950524690573965;388.5035;26;1;2.5;0.3;1.4;900;2.77777777777778;0.6062179;1.15;0.5967127;1.180562;-0.6893655;1.621553;-0.6712322;1.654955;
637950524700576210;389.5029;26;1;2.5;0.3;1.4;999;2.5025025025025;-0.4499517;2.036231;-0.4608284;1.990276;0.6062179;1.15;0.5967127;1.180562;
637950524709678250;390.4138;26;1;2.5;0.3;1.4;911;2.74423710208562;0.2394144;0.8422153;0.210614;0.8576045;-0.4499517;2.036231;-0.4608284;1.990276;
637950524750664618;394.5118;26;1;4;0.1;1.4;1999;2.00100050025012;-0.2394138;0.8422151;-0.2353803;0.867578;0;2.2;-0.01399016;2.200072;
637950524767656340;396.211;26;1;4;0.1;1.4;1699;2.35432607416127;0.4499513;2.036231;0.4250972;2.003248;-0.2394138;0.8422151;-0.2353803;0.867578;
637950524787644052;398.2101;26;1;4;0.1;1.4;1999;2.00100050025012;-0.6062176;1.15;-0.6274391;1.160587;0.4499513;2.036231;0.4250972;2.003248;
637950524801637193;399.6095;26;1;4;0.1;1.4;1399;2.85918513223731;0.6893654;1.621554;0.6588637;1.623717;-0.6062176;1.15;-0.6274391;1.160587;
637950524815630333;401.0087;26;1;4;0.1;1.4;1399;2.85918513223731;-0.6893655;1.621553;-0.6579285;1.613882;0.6893654;1.621554;0.6588637;1.623717;
637950524829633479;402.4083;26;1;4;0.1;1.4;1400;2.85714285714286;0.6062179;1.15;0.5651639;1.160256;-0.6893655;1.621553;-0.6579285;1.613882;
637950524844726863;403.9186;26;1;4;0.1;1.4;1510;2.64900662251656;-0.4499517;2.036231;-0.4384503;2.019118;0.6062179;1.15;0.5651639;1.160256;
637950524857719780;405.2178;26;1;4;0.1;1.4;1299;3.07929176289453;0.2394144;0.8422153;0.2221158;0.8880075;-0.4499517;2.036231;-0.4384503;2.019118;
637950524889706960;408.4166;26;1;3.5;0.2;2;1200;2.91666666666667;-0.3420197;0.5603072;-0.308636;0.5996072;0;2.5;0.008380209;2.518138;
637950524902699874;409.7158;26;1;3.5;0.2;2;1299;2.69438029253272;0.6427875;2.266045;0.5529302;2.230976;-0.3420197;0.5603072;-0.308636;0.5996072;
637950524915702794;411.0157;26;1;3.5;0.2;2;1300;2.69230769230769;-0.8660251;0.9999995;-0.8206149;1.037768;0.6427875;2.266045;0.5529302;2.230976;
637950524928685709;412.3147;26;1;3.5;0.2;2;1299;2.69438029253272;0.9848077;1.673648;0.9026166;1.689121;-0.8660251;0.9999995;-0.8206149;1.037768;
637950524941678621;413.6139;26;1;3.5;0.2;2;1299;2.69438029253272;-0.9848078;1.673648;-0.9795821;1.615885;0.9848077;1.673648;0.9026166;1.689121;
637950524953681317;414.8136;26;1;3.5;0.2;2;1200;2.91666666666667;0.8660256;1;0.8517438;1.00317;-0.9848078;1.673648;-0.9795821;1.615885;
637950524975666254;417.0125;26;1;3.5;0.2;2;2199;1.59163256025466;-0.6427882;2.266044;-0.6628228;2.220049;0.8660256;1;0.8517438;1.00317;
637950524988659167;418.3118;26;1;3.5;0.2;2;1299;2.69438029253272;0.3420205;0.5603075;0.2978575;0.6004293;-0.6427882;2.266044;-0.6628228;2.220049;
637950525657900036;485.2365;26;2;4;0.1;1.4;1899;2.10637177461822;-0.2394138;0.8422151;-0.2218085;0.8833753;0;2.2;-0.001298408;2.179645;
637950525673883617;486.8356;26;2;4;0.1;1.4;1599;2.50156347717323;0.4499513;2.036231;0.4369126;2.026541;-0.2394138;0.8422151;-0.2218085;0.8833753;
637950525684876091;487.9352;26;2;4;0.1;1.4;1100;3.63636363636364;-0.6062176;1.15;-0.5645987;1.140373;0.4499513;2.036231;0.4369126;2.026541;
637950525708871475;490.334;26;2;4;0.1;1.4;2399;1.66736140058358;0.6893654;1.621554;0.6608067;1.621299;-0.6062176;1.15;-0.5645987;1.140373;
637950525727855738;492.233;26;2;4;0.1;1.4;1899;2.10637177461822;-0.6893655;1.621553;-0.6730989;1.608697;0.6893654;1.621554;0.6608067;1.621299;
637950525741858881;493.6326;26;2;4;0.1;1.4;1400;2.85714285714286;0.6062179;1.15;0.566356;1.167954;-0.6893655;1.621553;-0.6730989;1.608697;
637950525754961821;494.9429;26;2;4;0.1;1.4;1310;3.05343511450382;-0.4499517;2.036231;-0.4284621;2.007467;0.6062179;1.15;0.566356;1.167954;
637950525768948269;496.3422;26;2;4;0.1;1.4;1399;2.85918513223731;0.2394144;0.8422153;0.2141983;0.8663747;-0.4499517;2.036231;-0.4284621;2.007467;
637950525797934775;499.2409;26;2;4.5;0.1;2.2;1452;3.09917355371901;-0.3762217;0.4663379;-0.3646022;0.5076504;0;2.6;0.02112198;2.55658;
637950525812928698;500.7402;26;2;4.5;0.1;2.2;1499;3.00200133422282;0.7070663;2.342649;0.6680846;2.347204;-0.3762217;0.4663379;-0.3646022;0.5076504;
637950525828928837;502.3394;26;2;4.5;0.1;2.2;1599;2.81425891181989;-0.9526277;0.9499994;-0.9294469;0.9484619;0.7070663;2.342649;0.6680846;2.347204;
637950525850912822;504.5385;26;2;4.5;0.1;2.2;2199;2.04638472032742;1.083289;1.691013;1.043679;1.689307;-0.9526277;0.9499994;-0.9294469;0.9484619;
637950525865902881;506.0377;26;2;4.5;0.1;2.2;1499;3.00200133422282;-1.083289;1.691012;-1.105258;1.67776;1.083289;1.691013;1.043679;1.689307;
637950525881900283;507.637;26;2;4.5;0.1;2.2;1599;2.81425891181989;0.9526281;0.9500003;0.9388869;0.9773685;-1.083289;1.691012;-1.105258;1.67776;
637950525896003448;509.0475;26;2;4.5;0.1;2.2;1411;3.18922749822821;-0.7070671;2.342648;-0.6938183;2.331862;0.9526281;0.9500003;0.9388869;0.9773685;
637950525913997487;510.8466;26;2;4.5;0.1;2.2;1799;2.50138966092273;0.3762226;0.4663382;0.3985174;0.4787762;-0.7070671;2.342648;-0.6938183;2.331862;
637950525932981754;512.7457;26;2;2;0.6;1.8;900;2.22222222222222;-0.3078177;0.6542765;-0.2273868;0.7682921;0;2.4;0.02856667;2.318617;
637950525943984216;513.8452;26;2;2;0.6;1.8;1100;1.81818181818182;0.5785087;2.18944;0.4905705;2.175306;-0.3078177;0.6542765;-0.2273868;0.7682921;
637950525953976461;514.8446;26;2;2;0.6;1.8;999;2.002002002002;-0.7794226;1.05;-0.8702189;1.203968;0.5785087;2.18944;0.4905705;2.175306;
637950525963968695;515.8442;26;2;2;0.6;1.8;1000;2;0.8863269;1.656283;0.7869374;1.714525;-0.7794226;1.05;-0.8702189;1.203968;
637950525973970947;516.8437;26;2;2;0.6;1.8;999;2.002002002002;-0.8863271;1.656283;-0.7236958;1.733494;0.8863269;1.656283;0.7869374;1.714525;
637950525981962740;517.6434;26;2;2;0.6;1.8;800;2.5;0.779423;1.05;0.7525637;1.244771;-0.8863271;1.656283;-0.7236958;1.733494;
637950525991954977;518.643;26;2;2;0.6;1.8;1000;2;-0.5785094;2.18944;-0.5879009;2.06286;0.779423;1.05;0.7525637;1.244771;
637950525999956779;519.4426;26;2;2;0.6;1.8;800;2.5;0.3078185;0.6542768;0.3877423;0.8904847;-0.5785094;2.18944;-0.5879009;2.06286;
637950526017950818;521.2416;26;2;2.5;0.3;1.4;800;3.125;-0.2394138;0.8422151;-0.1809917;0.9478378;0;2.2;-0.06611601;2.168723;
637950526025942612;522.0412;26;2;2.5;0.3;1.4;800;3.125;0.4499513;2.036231;0.4026844;2.01331;-0.2394138;0.8422151;-0.1809917;0.9478378;
637950526034944629;522.941;26;2;2.5;0.3;1.4;900;2.77777777777778;-0.6062176;1.15;-0.5710244;1.238118;0.4499513;2.036231;0.4026844;2.01331;
637950526041936198;523.6409;26;2;2.5;0.3;1.4;700;3.57142857142857;0.6893654;1.621554;0.6162244;1.665435;-0.6062176;1.15;-0.5710244;1.238118;
637950526050938223;524.5403;26;2;2.5;0.3;1.4;899;2.78086763070078;-0.6893655;1.621553;-0.5995145;1.626506;0.6893654;1.621554;0.6162244;1.665435;
637950526062040711;525.6509;26;2;2.5;0.3;1.4;1111;2.25022502250225;0.6062179;1.15;0.5460012;1.203009;-0.6893655;1.621553;-0.5995145;1.626506;
637950526070032505;526.4504;26;2;2.5;0.3;1.4;800;3.125;-0.4499517;2.036231;-0.4272124;2.046101;0.6062179;1.15;0.5460012;1.203009;
637950526079034524;527.35;26;2;2.5;0.3;1.4;900;2.77777777777778;0.2394144;0.8422153;0.2556885;0.8878515;-0.4499517;2.036231;-0.4272124;2.046101;
637950526107020811;530.1487;26;2;3;0.2;1.4;1099;2.72975432211101;-0.2394138;0.8422151;-0.2199694;0.9318272;0;2.2;0.01355929;2.249681;
637950526117013050;531.1484;26;2;3;0.2;1.4;1000;3;0.4499513;2.036231;0.4127739;2.071393;-0.2394138;0.8422151;-0.2199694;0.9318272;
637950526128005515;532.2478;26;2;3;0.2;1.4;1099;2.72975432211101;-0.6062176;1.15;-0.5834474;1.194137;0.4499513;2.036231;0.4127739;2.071393;
637950526145004257;533.9469;26;2;3;0.2;1.4;1699;1.76574455562095;0.6893654;1.621554;0.6899776;1.66798;-0.6062176;1.15;-0.5834474;1.194137;
637950526155994172;535.0464;26;2;3;0.2;1.4;1100;2.72727272727273;-0.6893655;1.621553;-0.6550166;1.640114;0.6893654;1.621554;0.6899776;1.66798;
637950526164986188;535.9462;26;2;3;0.2;1.4;900;3.33333333333333;0.6062179;1.15;0.6352155;1.111101;-0.6893655;1.621553;-0.6550166;1.640114;
637950526175988658;537.0455;26;2;3;0.2;1.4;1099;2.72975432211101;-0.4499517;2.036231;-0.4526449;2.071032;0.6062179;1.15;0.6352155;1.111101;
637950526186090926;538.0562;26;2;3;0.2;1.4;1011;2.9673590504451;0.2394144;0.8422153;0.309152;0.8823062;-0.4499517;2.036231;-0.4526449;2.071032;
637950526203083189;539.7554;26;2;1.5;1.1;2;900;1.66666666666667;-0.3420197;0.5603072;-0.1840035;1.016777;0;2.5;0.003988312;2.093628;
637950526211077937;540.555;26;2;1.5;1.1;2;800;1.875;0.6427875;2.266045;0.3375974;1.898115;-0.3420197;0.5603072;-0.1840035;1.016777;
637950526218083107;541.2547;26;2;1.5;1.1;2;700;2.14285714285714;-0.8660251;0.9999995;-0.5184282;1.205832;0.6427875;2.266045;0.3375974;1.898115;
637950526226074901;542.0544;26;2;1.5;1.1;2;800;1.875;0.9848077;1.673648;0.6648831;1.945645;-0.8660251;0.9999995;-0.5184282;1.205832;
637950526234066695;542.854;26;2;1.5;1.1;2;800;1.875;-0.9848078;1.673648;-0.5786705;1.672472;0.9848077;1.673648;0.6648831;1.945645;
637950526241068267;543.5536;26;2;1.5;1.1;2;700;2.14285714285714;0.8660256;1;0.6706198;1.41727;-0.9848078;1.673648;-0.5786705;1.672472;
637950526248059840;544.2534;26;2;1.5;1.1;2;700;2.14285714285714;-0.6427882;2.266044;-0.5880245;1.886308;0.8660256;1;0.6706198;1.41727;
637950526256061633;545.053;26;2;1.5;1.1;2;800;1.875;0.3420205;0.5603075;0.309944;1.045268;-0.6427882;2.266044;-0.5880245;1.886308;
637950526288038814;548.2514;26;2;3.5;0.2;2;1599;2.18886804252658;-0.3420197;0.5603072;-0.3073758;0.6223576;0;2.5;0.02405027;2.402936;
637950526302041952;549.6508;26;2;3.5;0.2;2;1399;2.50178699070765;0.6427875;2.266045;0.592659;2.272555;-0.3420197;0.5603072;-0.3073758;0.6223576;
637950526312234240;550.678;26;2;3.5;0.2;2;1027;3.40798442064265;-0.8660251;0.9999995;-0.9515475;1.032784;0.6427875;2.266045;0.592659;2.272555;
637950526325027113;551.9497;26;2;3.5;0.2;2;1272;2.75157232704403;0.9848077;1.673648;0.9075739;1.711707;-0.8660251;0.9999995;-0.9515475;1.032784;
637950526338130050;553.2601;26;2;3.5;0.2;2;1310;2.67175572519084;-0.9848078;1.673648;-1.009968;1.698742;0.9848077;1.673648;0.9075739;1.711707;
637950526351122966;554.5594;26;2;3.5;0.2;2;1299;2.69438029253272;0.8660256;1;0.8579862;1.03998;-0.9848078;1.673648;-1.009968;1.698742;
637950526368116781;556.2588;26;2;3.5;0.2;2;1699;2.06003531489111;-0.6427882;2.266044;-0.6771454;2.214333;0.8660256;1;0.8579862;1.03998;
637950526380109472;557.4583;26;2;3.5;0.2;2;1200;2.91666666666667;0.3420205;0.5603075;0.3444512;0.6384984;-0.6427882;2.266044;-0.6771454;2.214333;
637950527011260654;620.5734;26;3;2;0.6;1.8;700;2.85714285714286;-0.3078177;0.6542765;-0.290487;0.8668624;0;2.4;0.03126241;2.373633;
637950527020262670;621.4729;26;3;2;0.6;1.8;900;2.22222222222222;0.5785087;2.18944;0.4641068;2.155814;-0.3078177;0.6542765;-0.290487;0.8668624;
637950527027254240;622.1726;26;3;2;0.6;1.8;700;2.85714285714286;-0.7794226;1.05;-0.7844051;1.122078;0.5785087;2.18944;0.4641068;2.155814;
637950527036356283;623.0831;26;3;2;0.6;1.8;911;2.1953896816685;0.8863269;1.656283;0.6873765;1.727791;-0.7794226;1.05;-0.7844051;1.122078;
637950527042357630;623.6829;26;3;2;0.6;1.8;600;3.33333333333333;-0.8863271;1.656283;-0.9607331;1.608906;0.8863269;1.656283;0.6873765;1.727791;
637950527050349421;624.4825;26;3;2;0.6;1.8;800;2.5;0.779423;1.05;0.7454193;1.305985;-0.8863271;1.656283;-0.9607331;1.608906;
637950527059351445;625.3822;26;3;2;0.6;1.8;900;2.22222222222222;-0.5785094;2.18944;-0.4653493;2.113528;0.779423;1.05;0.7454193;1.305985;
637950527068353466;626.2819;26;3;2;0.6;1.8;900;2.22222222222222;0.3078185;0.6542768;0.1869638;0.8850073;-0.5785094;2.18944;-0.4653493;2.113528;
637950527086337500;628.0809;26;3;3.5;0.2;2;900;3.88888888888889;-0.3420197;0.5603072;-0.3014914;0.6223398;0;2.5;-0.03456793;2.464697;
637950527097329967;629.1805;26;3;3.5;0.2;2;1100;3.18181818181818;0.6427875;2.266045;0.5992938;2.22958;-0.3420197;0.5603072;-0.3014914;0.6223398;
637950527108332439;630.28;26;3;3.5;0.2;2;1099;3.18471337579618;-0.8660251;0.9999995;-0.7829537;1.038662;0.6427875;2.266045;0.5992938;2.22958;
637950527118324679;631.2797;26;3;3.5;0.2;2;1000;3.5;0.9848077;1.673648;0.9166791;1.665064;-0.8660251;0.9999995;-0.7829537;1.038662;
637950527127316697;632.179;26;3;3.5;0.2;2;899;3.89321468298109;-0.9848078;1.673648;-0.903305;1.67765;0.9848077;1.673648;0.9166791;1.665064;
637950527146310953;634.0781;26;3;3.5;0.2;2;1899;1.84307530279094;0.8660256;1;0.8303005;0.9955279;-0.9848078;1.673648;-0.903305;1.67765;
637950527157303430;635.1775;26;3;3.5;0.2;2;1099;3.18471337579618;-0.6427882;2.266044;-0.6678898;2.22993;0.8660256;1;0.8303005;0.9955279;
637950527170296346;636.477;26;3;3.5;0.2;2;1300;2.69230769230769;0.3420205;0.5603075;0.3851703;0.5921273;-0.6427882;2.266044;-0.6678898;2.22993;
637950527189400632;638.3871;26;3;2.5;0.3;1.4;999;2.5025025025025;-0.2394138;0.8422151;-0.1816947;0.8236645;0;2.2;0.0731501;2.237698;
637950527198402654;639.2869;26;3;2.5;0.3;1.4;900;2.77777777777778;0.4499513;2.036231;0.4491096;2.019222;-0.2394138;0.8422151;-0.1816947;0.8236645;
637950527205394220;639.9865;26;3;2.5;0.3;1.4;700;3.57142857142857;-0.6062176;1.15;-0.6152012;1.211598;0.4499513;2.036231;0.4491096;2.019222;
637950527213386007;640.786;26;3;2.5;0.3;1.4;799;3.12891113892365;0.6893654;1.621554;0.679043;1.625923;-0.6062176;1.15;-0.6152012;1.211598;
637950527220387588;641.4858;26;3;2.5;0.3;1.4;700;3.57142857142857;-0.6893655;1.621553;-0.7397001;1.620255;0.6893654;1.621554;0.679043;1.625923;
637950527228389377;642.2855;26;3;2.5;0.3;1.4;800;3.125;0.6062179;1.15;0.6638699;1.27043;-0.6893655;1.621553;-0.7397001;1.620255;
637950527236381169;643.0851;26;3;2.5;0.3;1.4;800;3.125;-0.4499517;2.036231;-0.4631604;2.004775;0.6062179;1.15;0.6638699;1.27043;
637950527246373417;644.0846;26;3;2.5;0.3;1.4;1000;2.5;0.2394144;0.8422153;0.295672;0.9200182;-0.4499517;2.036231;-0.4631604;2.004775;
637950527273362257;646.7833;26;3;1.5;1.1;2;999;1.5015015015015;-0.3420197;0.5603072;-0.1548507;0.8799872;0;2.5;-0.0005105736;2.168635;
637950527281364052;647.5831;26;3;1.5;1.1;2;800;1.875;0.6427875;2.266045;0.4258395;2.1128;-0.3420197;0.5603072;-0.1548507;0.8799872;
637950527291356289;648.5825;26;3;1.5;1.1;2;999;1.5015015015015;-0.8660251;0.9999995;-0.5948182;1.238999;0.6427875;2.266045;0.4258395;2.1128;
637950527299348088;649.3821;26;3;1.5;1.1;2;800;1.875;0.9848077;1.673648;0.6422607;1.674471;-0.8660251;0.9999995;-0.5948182;1.238999;
637950527305349470;649.9819;26;3;1.5;1.1;2;600;2.5;-0.9848078;1.673648;-0.6856515;1.806253;0.9848077;1.673648;0.6422607;1.674471;
637950527314345206;650.8815;26;3;1.5;1.1;2;900;1.66666666666667;0.8660256;1;0.7245488;1.35578;-0.9848078;1.673648;-0.6856515;1.806253;
637950527323340466;651.7809;26;3;1.5;1.1;2;899;1.66852057842047;-0.6427882;2.266044;-0.6786277;2.091767;0.8660256;1;0.7245488;1.35578;
637950527331452287;652.5919;26;3;1.5;1.1;2;811;1.84956843403206;0.3420205;0.5603075;0.2364932;1.007146;-0.6427882;2.266044;-0.6786277;2.091767;
637950527351436772;654.5908;26;3;4;0.1;1.4;1000;4;-0.2394138;0.8422151;-0.206162;0.8374038;0;2.2;-0.002166422;2.202119;
637950527362429239;655.6904;26;3;4;0.1;1.4;1100;3.63636363636364;0.4499513;2.036231;0.4131615;2.002512;-0.2394138;0.8422151;-0.206162;0.8374038;
637950527378422828;657.2897;26;3;4;0.1;1.4;1599;2.50156347717323;-0.6062176;1.15;-0.5931847;1.171033;0.4499513;2.036231;0.4131615;2.002512;
637950527388415071;658.2891;26;3;4;0.1;1.4;999;4.004004004004;0.6893654;1.621554;0.6635368;1.648625;-0.6062176;1.15;-0.5931847;1.171033;
637950527406409105;660.0881;26;3;4;0.1;1.4;1799;2.22345747637576;-0.6893655;1.621553;-0.67351;1.620255;0.6893654;1.621554;0.6635368;1.648625;
637950527418401805;661.2877;26;3;4;0.1;1.4;1200;3.33333333333333;0.6062179;1.15;0.5686782;1.17042;-0.6893655;1.621553;-0.67351;1.620255;
637950527429404270;662.3872;26;3;4;0.1;1.4;1099;3.63967242948135;-0.4499517;2.036231;-0.4762516;2.016234;0.6062179;1.15;0.5686782;1.17042;
637950527441396962;663.5867;26;3;4;0.1;1.4;1199;3.33611342785655;0.2394144;0.8422153;0.2391388;0.8759151;-0.4499517;2.036231;-0.4762516;2.016234;
637950527460391228;665.486;26;3;3;0.2;1.4;1000;3;-0.2394138;0.8422151;-0.1503181;0.859174;0;2.2;0.04418396;2.177142;
637950527477375038;667.185;26;3;3;0.2;1.4;1699;1.76574455562095;0.4499513;2.036231;0.4701072;1.953804;-0.2394138;0.8422151;-0.1503181;0.859174;
637950527487377284;668.1845;26;3;3;0.2;1.4;1000;3;-0.6062176;1.15;-0.5846679;1.138259;0.4499513;2.036231;0.4701072;1.953804;
637950527495379076;668.9846;26;3;3;0.2;1.4;800;3.75;0.6893654;1.621554;0.6711904;1.656202;-0.6062176;1.15;-0.5846679;1.138259;
637950527503480896;669.7949;26;3;3;0.2;1.4;810;3.7037037037037;-0.6893655;1.621553;-0.6064782;1.577932;0.6893654;1.621554;0.6711904;1.656202;
637950527513473141;670.7943;26;3;3;0.2;1.4;999;3.003003003003;0.6062179;1.15;0.6037397;1.237651;-0.6893655;1.621553;-0.6064782;1.577932;
637950527531467176;672.5934;26;3;3;0.2;1.4;1799;1.66759310728182;-0.4499517;2.036231;-0.4329366;2.046544;0.6062179;1.15;0.6037397;1.237651;
637950527541459418;673.5931;26;3;3;0.2;1.4;1000;3;0.2394144;0.8422153;0.2178289;0.8498514;-0.4499517;2.036231;-0.4329366;2.046544;
637950527576447271;677.0915;26;3;4.5;0.1;2.2;2099;2.14387803716055;-0.3762217;0.4663379;-0.3573909;0.4829892;0;2.6;0.006614497;2.559283;
637950527591440636;678.5906;26;3;4.5;0.1;2.2;1499;3.00200133422282;0.7070663;2.342649;0.6669354;2.319553;-0.3762217;0.4663379;-0.3573909;0.4829892;
637950527607430988;680.1901;26;3;4.5;0.1;2.2;1599;2.81425891181989;-0.9526277;0.9499994;-0.935017;0.9720083;0.7070663;2.342649;0.6669354;2.319553;
637950527618430975;681.2897;26;3;4.5;0.1;2.2;1100;4.09090909090909;1.083289;1.691013;1.058519;1.683271;-0.9526277;0.9499994;-0.935017;0.9720083;
637950527629418811;682.3892;26;3;4.5;0.1;2.2;1099;4.09463148316652;-1.083289;1.691012;-1.125815;1.682909;1.083289;1.691013;1.058519;1.683271;
637950527651523774;684.5992;26;3;4.5;0.1;2.2;2210;2.03619909502262;0.9526281;0.9500003;0.9435726;0.9791237;-1.083289;1.691012;-1.125815;1.682909;
637950527664516690;685.8986;26;3;4.5;0.1;2.2;1299;3.46420323325635;-0.7070671;2.342648;-0.6702898;2.336261;0.9526281;0.9500003;0.9435726;0.9791237;
637950527680510931;687.4978;26;3;4.5;0.1;2.2;1599;2.81425891181989;0.3762226;0.4663382;0.3445184;0.5030481;-0.7070671;2.342648;-0.6702898;2.336261;
637950528877843220;807.231;26;4;3.5;0.2;2;1699;2.06003531489111;-0.3420197;0.5603072;-0.331067;0.6076196;0;2.5;-0.005617157;2.416892;
637950528889835909;808.4304;26;4;3.5;0.2;2;1199;2.91909924937448;0.6427875;2.266045;0.5797787;2.233341;-0.3420197;0.5603072;-0.331067;0.6076196;
637950528901938625;809.6411;26;4;3.5;0.2;2;1211;2.89017341040462;-0.8660251;0.9999995;-0.8023186;0.9833332;0.6427875;2.266045;0.5797787;2.233341;
637950528912941100;810.7406;26;4;3.5;0.2;2;1100;3.18181818181818;0.9848077;1.673648;0.9654127;1.658104;-0.8660251;0.9999995;-0.8023186;0.9833332;
637950528921933112;811.64;26;4;3.5;0.2;2;899;3.89321468298109;-0.9848078;1.673648;-0.9835564;1.644122;0.9848077;1.673648;0.9654127;1.658104;
637950528930925133;812.5396;26;4;3.5;0.2;2;900;3.88888888888889;0.8660256;1;0.8411271;1.022272;-0.9848078;1.673648;-0.9835564;1.644122;
637950528946918719;814.1389;26;4;3.5;0.2;2;1599;2.18886804252658;-0.6427882;2.266044;-0.6074299;2.200711;0.8660256;1;0.8411271;1.022272;
637950528959911636;815.4381;26;4;3.5;0.2;2;1299;2.69438029253272;0.3420205;0.5603075;0.2816214;0.6199743;-0.6427882;2.266044;-0.6074299;2.200711;
637950528982896796;817.7371;26;4;3;0.2;1.4;1000;3;-0.2394138;0.8422151;-0.2334682;0.8608559;0;2.2;-0.05553554;2.144338;
637950528991898813;818.6366;26;4;3;0.2;1.4;899;3.33704115684093;0.4499513;2.036231;0.4176051;2.027908;-0.2394138;0.8422151;-0.2334682;0.8608559;
637950529001891057;819.6363;26;4;3;0.2;1.4;1000;3;-0.6062176;1.15;-0.5818808;1.18078;0.4499513;2.036231;0.4176051;2.027908;
637950529009892854;820.4359;26;4;3;0.2;1.4;800;3.75;0.6893654;1.621554;0.7110382;1.630762;-0.6062176;1.15;-0.5818808;1.18078;
637950529017884647;821.2355;26;4;3;0.2;1.4;800;3.75;-0.6893655;1.621553;-0.6348187;1.57907;0.6893654;1.621554;0.7110382;1.630762;
637950529027880288;822.235;26;4;3;0.2;1.4;999;3.003003003003;0.6062179;1.15;0.6140777;1.115711;-0.6893655;1.621553;-0.6348187;1.57907;
637950529043870257;823.8343;26;4;3;0.2;1.4;1599;1.87617260787993;-0.4499517;2.036231;-0.4211699;2.029605;0.6062179;1.15;0.6140777;1.115711;
637950529053982523;824.8448;26;4;3;0.2;1.4;1010;2.97029702970297;0.2394144;0.8422153;0.2316123;0.880299;-0.4499517;2.036231;-0.4211699;2.029605;
637950529083959833;827.8434;26;4;4.5;0.1;2.2;1499;3.00200133422282;-0.3762217;0.4663379;-0.3532298;0.4947289;0;2.6;-0.01653645;2.605617;
637950529105950439;830.0425;26;4;4.5;0.1;2.2;2199;2.04638472032742;0.7070663;2.342649;0.7327815;2.370331;-0.3762217;0.4663379;-0.3532298;0.4947289;
637950529122944261;831.7418;26;4;4.5;0.1;2.2;1699;2.64861683343143;-0.9526277;0.9499994;-0.9133953;0.9625716;0.7070663;2.342649;0.7327815;2.370331;
637950529138937849;833.3411;26;4;4.5;0.1;2.2;1599;2.81425891181989;1.083289;1.691013;1.047255;1.673509;-0.9526277;0.9499994;-0.9133953;0.9625716;
637950529158932336;835.3401;26;4;4.5;0.1;2.2;1999;2.25112556278139;-1.083289;1.691012;-1.068401;1.709021;1.083289;1.691013;1.047255;1.673509;
637950529171925254;836.6395;26;4;4.5;0.1;2.2;1299;3.46420323325635;0.9526281;0.9500003;0.910618;0.9570806;-1.083289;1.691012;-1.068401;1.709021;
637950529185918394;838.0389;26;4;4.5;0.1;2.2;1399;3.21658327376698;-0.7070671;2.342648;-0.6890281;2.317332;0.9526281;0.9500003;0.910618;0.9570806;
637950529205912882;840.038;26;4;4.5;0.1;2.2;1999;2.25112556278139;0.3762226;0.4663382;0.3722682;0.4696283;-0.7070671;2.342648;-0.6890281;2.317332;
637950529238000082;843.2475;26;4;4;0.1;1.4;1199;3.33611342785655;-0.2394138;0.8422151;-0.2081799;0.8808255;0;2.2;0.03769454;2.194908;
637950529253003450;844.7472;26;4;4;0.1;1.4;1500;2.66666666666667;0.4499513;2.036231;0.4364235;2.048196;-0.2394138;0.8422151;-0.2081799;0.8808255;
637950529266996590;846.1462;26;4;4;0.1;1.4;1399;2.85918513223731;-0.6062176;1.15;-0.5739335;1.134765;0.4499513;2.036231;0.4364235;2.048196;
637950529289981749;848.4451;26;4;4;0.1;1.4;2299;1.73988690735102;0.6893654;1.621554;0.6714132;1.613992;-0.6062176;1.15;-0.5739335;1.134765;
637950529307185605;850.1727;26;4;4;0.1;1.4;1728;2.31481481481481;-0.6893655;1.621553;-0.639989;1.614426;0.6893654;1.621554;0.6714132;1.613992;
637950529318968253;851.3438;26;4;4;0.1;1.4;1171;3.41588385994876;0.6062179;1.15;0.5793455;1.173732;-0.6893655;1.621553;-0.639989;1.614426;
637950529330960947;852.5432;26;4;4;0.1;1.4;1199;3.33611342785655;-0.4499517;2.036231;-0.4274922;2.01511;0.6062179;1.15;0.5793455;1.173732;
637950529346954536;854.1425;26;4;4;0.1;1.4;1599;2.50156347717323;0.2394144;0.8422153;0.2495523;0.8831128;-0.4499517;2.036231;-0.4274922;2.01511;
637950529366949024;856.1415;26;4;1.5;1.1;2;900;1.66666666666667;-0.3420197;0.5603072;-0.220841;0.8855646;0;2.5;0.05267544;2.126009;
637950529373940590;856.8411;26;4;1.5;1.1;2;700;2.14285714285714;0.6427875;2.266045;0.4074607;2.032866;-0.3420197;0.5603072;-0.220841;0.8855646;
637950529382052413;857.6522;26;4;1.5;1.1;2;811;1.84956843403206;-0.8660251;0.9999995;-0.6356432;1.301114;0.6427875;2.266045;0.4074607;2.032866;
637950529391044432;858.5514;26;4;1.5;1.1;2;899;1.66852057842047;0.9848077;1.673648;0.763028;1.72382;-0.8660251;0.9999995;-0.6356432;1.301114;
637950529398041182;859.2512;26;4;1.5;1.1;2;700;2.14285714285714;-0.9848078;1.673648;-0.828041;1.624978;0.9848077;1.673648;0.763028;1.72382;
637950529406038452;860.0507;26;4;1.5;1.1;2;799;1.87734668335419;0.8660256;1;0.5575503;1.273544;-0.9848078;1.673648;-0.828041;1.624978;
637950529415030468;860.9504;26;4;1.5;1.1;2;900;1.66666666666667;-0.6427882;2.266044;-0.6171317;1.957943;0.8660256;1;0.5575503;1.273544;
637950529424032491;861.8499;26;4;1.5;1.1;2;899;1.66852057842047;0.3420205;0.5603075;0.2611624;0.9300376;-0.6427882;2.266044;-0.6171317;1.957943;
637950529439025990;863.3494;26;4;2.5;0.3;1.4;700;3.57142857142857;-0.2394138;0.8422151;-0.1408359;0.8498212;0;2.2;-0.01027647;2.062551;
637950529449020684;864.3488;26;4;2.5;0.3;1.4;999;2.5025025025025;0.4499513;2.036231;0.392573;2.044984;-0.2394138;0.8422151;-0.1408359;0.8498212;
637950529458019775;865.2485;26;4;2.5;0.3;1.4;900;2.77777777777778;-0.6062176;1.15;-0.6061768;1.116917;0.4499513;2.036231;0.392573;2.044984;
637950529467006764;866.148;26;4;2.5;0.3;1.4;899;2.78086763070078;0.6893654;1.621554;0.7174718;1.676865;-0.6062176;1.15;-0.6061768;1.116917;
637950529474008336;866.8478;26;4;2.5;0.3;1.4;700;3.57142857142857;-0.6893655;1.621553;-0.7129869;1.60283;0.6893654;1.621554;0.7174718;1.676865;
637950529485000800;867.9471;26;4;2.5;0.3;1.4;1099;2.27479526842584;0.6062179;1.15;0.6081623;1.208794;-0.6893655;1.621553;-0.7129869;1.60283;
637950529493992819;868.8466;26;4;2.5;0.3;1.4;900;2.77777777777778;-0.4499517;2.036231;-0.4487309;2.000279;0.6062179;1.15;0.6081623;1.208794;
637950529502994841;869.7463;26;4;2.5;0.3;1.4;900;2.77777777777778;0.2394144;0.8422153;0.1734671;0.8912656;-0.4499517;2.036231;-0.4487309;2.000279;
637950529521088900;871.5564;26;4;2;0.6;1.8;911;2.1953896816685;-0.3078177;0.6542765;-0.2324071;0.9423973;0;2.4;0.03253175;2.236417;
637950529536092267;873.0558;26;4;2;0.6;1.8;1499;1.33422281521014;0.5785087;2.18944;0.485326;2.078572;-0.3078177;0.6542765;-0.2324071;0.9423973;
637950529544084061;873.8555;26;4;2;0.6;1.8;800;2.5;-0.7794226;1.05;-0.5748599;1.147993;0.5785087;2.18944;0.485326;2.078572;
637950529552085858;874.655;26;4;2;0.6;1.8;799;2.50312891113892;0.8863269;1.656283;0.7866301;1.711038;-0.7794226;1.05;-0.5748599;1.147993;
637950529562078099;875.6546;26;4;2;0.6;1.8;1000;2;-0.8863271;1.656283;-0.7815218;1.658527;0.8863269;1.656283;0.7866301;1.711038;
637950529571070118;876.5541;26;4;2;0.6;1.8;900;2.22222222222222;0.779423;1.05;0.6600691;1.154401;-0.8863271;1.656283;-0.7815218;1.658527;
637950529580072137;877.4538;26;4;2;0.6;1.8;900;2.22222222222222;-0.5785094;2.18944;-0.4180287;2.182512;0.779423;1.05;0.6600691;1.154401;
637950529592064833;878.6532;26;4;2;0.6;1.8;1199;1.66805671392827;0.3078185;0.6542768;0.4064994;0.8495972;-0.5785094;2.18944;-0.4180287;2.182512;
637950530145478765;933.9941;26;5;1.5;1.1;2;800;1.875;-0.3420197;0.5603072;-0.204859;0.7829958;0;2.5;0.06659481;2.258458;
637950530160459877;935.4933;26;5;1.5;1.1;2;1499;1.00066711140761;0.6427875;2.266045;0.429764;2.045137;-0.3420197;0.5603072;-0.204859;0.7829958;
637950530167460119;936.1933;26;5;1.5;1.1;2;700;2.14285714285714;-0.8660251;0.9999995;-0.6933879;1.183142;0.6427875;2.266045;0.429764;2.045137;
637950530174458607;936.8928;26;5;1.5;1.1;2;699;2.14592274678112;0.9848077;1.673648;0.8729552;1.70047;-0.8660251;0.9999995;-0.6933879;1.183142;
637950530181456500;937.5925;26;5;1.5;1.1;2;700;2.14285714285714;-0.9848078;1.673648;-0.9160796;1.647655;0.9848077;1.673648;0.8729552;1.70047;
637950530188448068;938.2922;26;5;1.5;1.1;2;700;2.14285714285714;0.8660256;1;0.881007;1.296023;-0.9848078;1.673648;-0.9160796;1.647655;
637950530195449642;938.9918;26;5;1.5;1.1;2;700;2.14285714285714;-0.6427882;2.266044;-0.5574653;2.061442;0.8660256;1;0.881007;1.296023;
637950530203441433;939.7914;26;5;1.5;1.1;2;800;1.875;0.3420205;0.5603075;0.3828831;0.7096342;-0.6427882;2.266044;-0.5574653;2.061442;
637950530225437243;941.9904;26;5;3;0.2;1.4;900;3.33333333333333;-0.2394138;0.8422151;-0.2353999;0.8824338;0;2.2;0.01183025;2.162213;
637950530233432629;942.79;26;5;3;0.2;1.4;800;3.75;0.4499513;2.036231;0.4238873;2.055229;-0.2394138;0.8422151;-0.2353999;0.8824338;
637950530242537435;943.7007;26;5;3;0.2;1.4;911;3.29308452250274;-0.6062176;1.15;-0.5270377;1.196941;0.4499513;2.036231;0.4238873;2.055229;
637950530258531024;945.3;26;5;3;0.2;1.4;1599;1.87617260787993;0.6893654;1.621554;0.7344821;1.674103;-0.6062176;1.15;-0.5270377;1.196941;
637950530267533046;946.1998;26;5;3;0.2;1.4;900;3.33333333333333;-0.6893655;1.621553;-0.6850637;1.622208;0.6893654;1.621554;0.7344821;1.674103;
637950530284516853;947.8989;26;5;3;0.2;1.4;1699;1.76574455562095;0.6062179;1.15;0.5503898;1.148395;-0.6893655;1.621553;-0.6850637;1.622208;
637950530296509551;949.0982;26;5;3;0.2;1.4;1199;2.50208507089241;-0.4499517;2.036231;-0.426686;2.007817;0.6062179;1.15;0.5503898;1.148395;
637950530305511568;949.9979;26;5;3;0.2;1.4;900;3.33333333333333;0.2394144;0.8422153;0.2282199;0.8730758;-0.4499517;2.036231;-0.426686;2.007817;
637950530330497178;952.4966;26;5;4.5;0.1;2.2;1299;3.46420323325635;-0.3762217;0.4663379;-0.3576634;0.4624316;0;2.6;0.005031745;2.568095;
637950530343800165;953.8341;26;5;4.5;0.1;2.2;1338;3.36322869955157;0.7070663;2.342649;0.6603755;2.32475;-0.3762217;0.4663379;-0.3576634;0.4624316;
637950530358483457;955.2953;26;5;4.5;0.1;2.2;1461;3.08008213552361;-0.9526277;0.9499994;-0.9038768;0.9590031;0.7070663;2.342649;0.6603755;2.32475;
637950530370476149;956.4946;26;5;4.5;0.1;2.2;1199;3.75312760633862;1.083289;1.691013;1.05945;1.708756;-0.9526277;0.9499994;-0.9038768;0.9590031;
637950530380468395;957.4941;26;5;4.5;0.1;2.2;1000;4.5;-1.083289;1.691012;-1.044811;1.698688;1.083289;1.691013;1.05945;1.708756;
637950530395461758;958.9936;26;5;4.5;0.1;2.2;1499;3.00200133422282;0.9526281;0.9500003;0.9507039;0.9567879;-1.083289;1.691012;-1.044811;1.698688;
637950530410575148;960.5043;26;5;4.5;0.1;2.2;1511;2.97816015883521;-0.7070671;2.342648;-0.6805221;2.343396;0.9526281;0.9500003;0.9507039;0.9567879;
637950530424568295;961.9034;26;5;4.5;0.1;2.2;1399;3.21658327376698;0.3762226;0.4663382;0.413877;0.499157;-0.7070671;2.342648;-0.6805221;2.343396;
637950530443762593;963.8301;26;5;2.5;0.3;1.4;927;2.69687162891046;-0.2394138;0.8422151;-0.2086974;0.7123353;0;2.2;0.04583202;2.159592;
637950530451554349;964.6022;26;5;2.5;0.3;1.4;772;3.23834196891192;0.4499513;2.036231;0.439959;2.032474;-0.2394138;0.8422151;-0.2086974;0.7123353;
637950530468538156;966.3013;26;5;2.5;0.3;1.4;1699;1.47145379635079;-0.6062176;1.15;-0.4771299;1.181948;0.4499513;2.036231;0.439959;2.032474;
637950530477540178;967.2009;26;5;2.5;0.3;1.4;900;2.77777777777778;0.6893654;1.621554;0.6012414;1.535032;-0.6062176;1.15;-0.4771299;1.181948;
637950530485531972;968.0004;26;5;2.5;0.3;1.4;800;3.125;-0.6893655;1.621553;-0.734764;1.541319;0.6893654;1.621554;0.6012414;1.535032;
637950530493533768;968.8002;26;5;2.5;0.3;1.4;800;3.125;0.6062179;1.15;0.6056558;1.151282;-0.6893655;1.621553;-0.734764;1.541319;
637950530503526008;969.7997;26;5;2.5;0.3;1.4;999;2.5025025025025;-0.4499517;2.036231;-0.430231;2.055461;0.6062179;1.15;0.6056558;1.151282;
637950530511522847;970.5992;26;5;2.5;0.3;1.4;799;3.12891113892365;0.2394144;0.8422153;0.2761448;0.8905005;-0.4499517;2.036231;-0.430231;2.055461;
637950530527513818;972.1987;26;5;2;0.6;1.8;900;2.22222222222222;-0.3078177;0.6542765;-0.1142655;0.7748017;0;2.4;-0.0169425;2.307279;
637950530535515616;972.9982;26;5;2;0.6;1.8;800;2.5;0.5785087;2.18944;0.4270198;2.157617;-0.3078177;0.6542765;-0.1142655;0.7748017;
637950530544507633;973.8977;26;5;2;0.6;1.8;900;2.22222222222222;-0.7794226;1.05;-0.6325976;1.021143;0.5785087;2.18944;0.4270198;2.157617;
637950530552509428;974.6975;26;5;2;0.6;1.8;800;2.5;0.8863269;1.656283;0.7557234;1.778828;-0.7794226;1.05;-0.6325976;1.021143;
637950530560501222;975.4971;26;5;2;0.6;1.8;800;2.5;-0.8863271;1.656283;-0.719836;1.767495;0.8863269;1.656283;0.7557234;1.778828;
637950530568602876;976.3076;26;5;2;0.6;1.8;811;2.46609124537608;0.779423;1.05;0.7705684;1.173306;-0.8863271;1.656283;-0.719836;1.767495;
637950530577603601;977.2076;26;5;2;0.6;1.8;900;2.22222222222222;-0.5785094;2.18944;-0.5156595;2.068317;0.779423;1.05;0.7705684;1.173306;
637950530586605972;978.1072;26;5;2;0.6;1.8;900;2.22222222222222;0.3078185;0.6542768;0.3126023;0.89368;-0.5785094;2.18944;-0.5156595;2.068317;
637950530609591827;980.406;26;5;3.5;0.2;2;1200;2.91666666666667;-0.3420197;0.5603072;-0.3085754;0.6380583;0;2.5;0.001907811;2.419;
637950530619584070;981.4054;26;5;3.5;0.2;2;999;3.5035035035035;0.6427875;2.266045;0.5641711;2.234533;-0.3420197;0.5603072;-0.3085754;0.6380583;
637950530635577655;983.0045;26;5;3.5;0.2;2;1599;2.18886804252658;-0.8660251;0.9999995;-0.8154557;1.036276;0.6427875;2.266045;0.5641711;2.234533;
637950530646570127;984.1042;26;5;3.5;0.2;2;1100;3.18181818181818;0.9848077;1.673648;0.9221489;1.671434;-0.8660251;0.9999995;-0.8154557;1.036276;
637950530655572150;985.0037;26;5;3.5;0.2;2;900;3.88888888888889;-0.9848078;1.673648;-0.9151369;1.689535;0.9848077;1.673648;0.9221489;1.671434;
637950530666564616;986.1033;26;5;3.5;0.2;2;1099;3.18471337579618;0.8660256;1;0.7942882;1.029704;-0.9848078;1.673648;-0.9151369;1.689535;
637950530677557088;987.2026;26;5;3.5;0.2;2;1099;3.18471337579618;-0.6427882;2.266044;-0.6235611;2.207643;0.8660256;1;0.7942882;1.029704;
637950530687549329;988.2022;26;5;3.5;0.2;2;1000;3.5;0.3420205;0.5603075;0.3529698;0.6402301;-0.6427882;2.266044;-0.6235611;2.207643;
637950530727648324;992.2118;26;5;4;0.1;1.4;1811;2.20872446162341;-0.2394138;0.8422151;-0.2170195;0.8606232;0;2.2;-0.02109524;2.21931;
637950530738640785;993.311;26;5;4;0.1;1.4;1099;3.63967242948135;0.4499513;2.036231;0.4429697;2.041006;-0.2394138;0.8422151;-0.2170195;0.8606232;
637950530751633708;994.6104;26;5;4;0.1;1.4;1299;3.07929176289453;-0.6062176;1.15;-0.5908891;1.16097;0.4499513;2.036231;0.4429697;2.041006;
637950530761625953;995.6097;26;5;4;0.1;1.4;999;4.004004004004;0.6893654;1.621554;0.6778045;1.649067;-0.6062176;1.15;-0.5908891;1.16097;
637950530771628195;996.6094;26;5;4;0.1;1.4;1000;4;-0.6893655;1.621553;-0.7084063;1.6447;0.6893654;1.621554;0.6778045;1.649067;
637950530782620661;997.709;26;5;4;0.1;1.4;1100;3.63636363636364;0.6062179;1.15;0.5808204;1.192368;-0.6893655;1.621553;-0.7084063;1.6447;
637950530793613129;998.8083;26;5;4;0.1;1.4;1099;3.63967242948135;-0.4499517;2.036231;-0.4171232;2.035897;0.6062179;1.15;0.5808204;1.192368;
637950530804605597;999.9079;26;5;4;0.1;1.4;1100;3.63636363636364;0.2394144;0.8422153;0.2061976;0.8752234;-0.4499517;2.036231;-0.4171232;2.035897;
637950531396889089;1059.136;26;6;2.5;0.3;1.4;1499;1.66777851901268;-0.2394138;0.8422151;-0.2098622;0.9229383;0;2.2;-0.09530263;2.137863;
637950531404880875;1059.935;26;6;2.5;0.3;1.4;800;3.125;0.4499513;2.036231;0.351228;1.994675;-0.2394138;0.8422151;-0.2098622;0.9229383;
637950531411882446;1060.635;26;6;2.5;0.3;1.4;700;3.57142857142857;-0.6062176;1.15;-0.5340831;1.143319;0.4499513;2.036231;0.351228;1.994675;
637950531419874240;1061.435;26;6;2.5;0.3;1.4;800;3.125;0.6893654;1.621554;0.6183618;1.649092;-0.6062176;1.15;-0.5340831;1.143319;
637950531426875811;1062.135;26;6;2.5;0.3;1.4;700;3.57142857142857;-0.6893655;1.621553;-0.6145163;1.613688;0.6893654;1.621554;0.6183618;1.649092;
637950531434867605;1062.934;26;6;2.5;0.3;1.4;800;3.125;0.6062179;1.15;0.5689295;1.189772;-0.6893655;1.621553;-0.6145163;1.613688;
637950531441869174;1063.634;26;6;2.5;0.3;1.4;699;3.57653791130186;-0.4499517;2.036231;-0.3671928;1.964623;0.6062179;1.15;0.5689295;1.189772;
637950531457862764;1065.233;26;6;2.5;0.3;1.4;1599;1.56347717323327;0.2394144;0.8422153;0.2472193;0.9223156;-0.4499517;2.036231;-0.3671928;1.964623;
637950531473856351;1066.832;26;6;1.5;1.1;2;799;1.87734668335419;-0.3420197;0.5603072;-0.2611908;0.9359615;0;2.5;0.03985794;2.224803;
637950531481848152;1067.632;26;6;1.5;1.1;2;800;1.875;0.6427875;2.266045;0.3544532;2.148541;-0.3420197;0.5603072;-0.2611908;0.9359615;
637950531495841288;1069.031;26;6;1.5;1.1;2;1400;1.07142857142857;-0.8660251;0.9999995;-0.5264282;1.288339;0.6427875;2.266045;0.3544532;2.148541;
637950531502952886;1069.742;26;6;1.5;1.1;2;711;2.10970464135021;0.9848077;1.673648;0.6846502;1.699779;-0.8660251;0.9999995;-0.5264282;1.288339;
637950531508944224;1070.342;26;6;1.5;1.1;2;599;2.50417362270451;-0.9848078;1.673648;-0.6862136;1.670313;0.9848077;1.673648;0.6846502;1.699779;
637950531516946028;1071.141;26;6;1.5;1.1;2;800;1.875;0.8660256;1;0.6479792;1.293579;-0.9848078;1.673648;-0.6862136;1.670313;
637950531524937819;1071.941;26;6;1.5;1.1;2;800;1.875;-0.6427882;2.266044;-0.5367484;2.070427;0.8660256;1;0.6479792;1.293579;
637950531531939393;1072.641;26;6;1.5;1.1;2;700;2.14285714285714;0.3420205;0.5603075;0.2177201;0.9770374;-0.6427882;2.266044;-0.5367484;2.070427;
637950531547932980;1074.24;26;6;2;0.6;1.8;800;2.5;-0.3078177;0.6542765;-0.1943653;0.8085303;0;2.4;-0.04915434;2.274208;
637950531556924998;1075.14;26;6;2;0.6;1.8;900;2.22222222222222;0.5785087;2.18944;0.582349;2.08125;-0.3078177;0.6542765;-0.1943653;0.8085303;
637950531564926793;1075.94;26;6;2;0.6;1.8;800;2.5;-0.7794226;1.05;-0.696663;1.04414;0.5785087;2.18944;0.582349;2.08125;
637950531579920159;1077.438;26;6;2;0.6;1.8;1499;1.33422281521014;0.8863269;1.656283;0.6902305;1.712398;-0.7794226;1.05;-0.696663;1.04414;
637950531587911952;1078.238;26;6;2;0.6;1.8;800;2.5;-0.8863271;1.656283;-0.6841043;1.674843;0.8863269;1.656283;0.6902305;1.712398;
637950531597904188;1079.238;26;6;2;0.6;1.8;1000;2;0.779423;1.05;0.7264748;1.255798;-0.8863271;1.656283;-0.6841043;1.674843;
637950531606906215;1080.137;26;6;2;0.6;1.8;900;2.22222222222222;-0.5785094;2.18944;-0.476638;2.184792;0.779423;1.05;0.7264748;1.255798;
637950531615898233;1081.037;26;6;2;0.6;1.8;900;2.22222222222222;0.3078185;0.6542768;0.1737698;0.7901556;-0.5785094;2.18944;-0.476638;2.184792;
637950531640883841;1083.536;26;6;3;0.2;1.4;900;3.33333333333333;-0.2394138;0.8422151;-0.2016559;0.7976329;0;2.2;-0.006664177;2.152144;
637950531652876531;1084.735;26;6;3;0.2;1.4;1200;2.5;0.4499513;2.036231;0.3982676;1.973375;-0.2394138;0.8422151;-0.2016559;0.7976329;
637950531663991193;1085.846;26;6;3;0.2;1.4;1111;2.7002700270027;-0.6062176;1.15;-0.586297;1.160982;0.4499513;2.036231;0.3982676;1.973375;
637950531672703548;1086.717;26;6;3;0.2;1.4;800;3.75;0.6893654;1.621554;0.6476144;1.602964;-0.6062176;1.15;-0.586297;1.160982;
637950531681972099;1087.645;26;6;3;0.2;1.4;928;3.23275862068966;-0.6893655;1.621553;-0.6866009;1.641302;0.6893654;1.621554;0.6476144;1.602964;
637950531690974123;1088.544;26;6;3;0.2;1.4;900;3.33333333333333;0.6062179;1.15;0.6164767;1.221379;-0.6893655;1.621553;-0.6866009;1.641302;
637950531700976370;1089.544;26;6;3;0.2;1.4;1000;3;-0.4499517;2.036231;-0.4610223;1.955519;0.6062179;1.15;0.6164767;1.221379;
637950531709967620;1090.444;26;6;3;0.2;1.4;899;3.33704115684093;0.2394144;0.8422153;0.1947471;0.8966476;-0.4499517;2.036231;-0.4610223;1.955519;
637950531738961279;1093.343;26;6;3.5;0.2;2;1399;2.50178699070765;-0.3420197;0.5603072;-0.3526892;0.6159832;0;2.5;-0.01972594;2.446004;
637950531749945773;1094.442;26;6;3.5;0.2;2;1099;3.18471337579618;0.6427875;2.266045;0.5786394;2.275915;-0.3420197;0.5603072;-0.3526892;0.6159832;
637950531762058034;1095.653;26;6;3.5;0.2;2;1211;2.89017341040462;-0.8660251;0.9999995;-0.8299479;0.9987777;0.6427875;2.266045;0.5786394;2.275915;
637950531772050281;1096.652;26;6;3.5;0.2;2;1000;3.5;0.9848077;1.673648;1.039102;1.721048;-0.8660251;0.9999995;-0.8299479;0.9987777;
637950531781042288;1097.551;26;6;3.5;0.2;2;899;3.89321468298109;-0.9848078;1.673648;-0.9485253;1.662283;0.9848077;1.673648;1.039102;1.721048;
637950531789034088;1098.351;26;6;3.5;0.2;2;800;4.375;0.8660256;1;0.8457084;1.011965;-0.9848078;1.673648;-0.9485253;1.662283;
637950531797035883;1099.151;26;6;3.5;0.2;2;800;4.375;-0.6427882;2.266044;-0.6341144;2.299888;0.8660256;1;0.8457084;1.011965;
637950531808028349;1100.25;26;6;3.5;0.2;2;1100;3.18181818181818;0.3420205;0.5603075;0.2753012;0.6088576;-0.6427882;2.266044;-0.6341144;2.299888;
637950531837014862;1103.149;26;6;4.5;0.1;2.2;1699;2.64861683343143;-0.3762217;0.4663379;-0.3685821;0.4762857;0;2.6;-0.004807684;2.562856;
637950531852008219;1104.648;26;6;4.5;0.1;2.2;1499;3.00200133422282;0.7070663;2.342649;0.7150176;2.322838;-0.3762217;0.4663379;-0.3685821;0.4762857;
637950531868001810;1106.247;26;6;4.5;0.1;2.2;1599;2.81425891181989;-0.9526277;0.9499994;-0.9420314;0.9682855;0.7070663;2.342649;0.7150176;2.322838;
637950531880994726;1107.547;26;6;4.5;0.1;2.2;1299;3.46420323325635;1.083289;1.691013;1.064908;1.70452;-0.9526277;0.9499994;-0.9420314;0.9682855;
637950531893997645;1108.846;26;6;4.5;0.1;2.2;1299;3.46420323325635;-1.083289;1.691012;-1.040612;1.685468;1.083289;1.691013;1.064908;1.70452;
637950531906100362;1110.057;26;6;4.5;0.1;2.2;1211;3.7159372419488;0.9526281;0.9500003;0.9267139;0.979421;-1.083289;1.691012;-1.040612;1.685468;
637950531919093278;1111.356;26;6;4.5;0.1;2.2;1300;3.46153846153846;-0.7070671;2.342648;-0.7052986;2.336674;0.9526281;0.9500003;0.9267139;0.979421;
637950531933086417;1112.755;26;6;4.5;0.1;2.2;1399;3.21658327376698;0.3762226;0.4663382;0.4110933;0.4857048;-0.7070671;2.342648;-0.7052986;2.336674;
637950531964073372;1115.854;26;6;4;0.1;1.4;1400;2.85714285714286;-0.2394138;0.8422151;-0.2251354;0.8759161;0;2.2;0.000574928;2.169549;
637950531977066288;1117.153;26;6;4;0.1;1.4;1299;3.07929176289453;0.4499513;2.036231;0.4265608;2.02112;-0.2394138;0.8422151;-0.2251354;0.8759161;
637950531993059878;1118.753;26;6;4;0.1;1.4;1599;2.50156347717323;-0.6062176;1.15;-0.5730455;1.147214;0.4499513;2.036231;0.4265608;2.02112;
637950532002051895;1119.652;26;6;4;0.1;1.4;900;4.44444444444444;0.6893654;1.621554;0.6752229;1.614575;-0.6062176;1.15;-0.5730455;1.147214;
637950532011043915;1120.552;26;6;4;0.1;1.4;899;4.44938820912125;-0.6893655;1.621553;-0.6617088;1.631173;0.6893654;1.621554;0.6752229;1.614575;
637950532026037274;1122.051;26;6;4;0.1;1.4;1499;2.66844563042028;0.6062179;1.15;0.6247278;1.143903;-0.6893655;1.621553;-0.6617088;1.631173;
637950532039030189;1123.351;26;6;4;0.1;1.4;1299;3.07929176289453;-0.4499517;2.036231;-0.4118819;2.043746;0.6062179;1.15;0.6247278;1.143903;
637950532052033114;1124.65;26;6;4;0.1;1.4;1299;3.07929176289453;0.2394144;0.8422153;0.2340748;0.8733895;-0.4499517;2.036231;-0.4118819;2.043746;
637950532577231979;1177.17;26;7;4.5;0.1;2.2;1599;2.81425891181989;-0.3762217;0.4663379;-0.3788468;0.5016992;0;2.6;0.005936011;2.599279;
637950532591217255;1178.569;26;7;4.5;0.1;2.2;1399;3.21658327376698;0.7070663;2.342649;0.6775497;2.337116;-0.3762217;0.4663379;-0.3788468;0.5016992;
637950532606210617;1180.069;26;7;4.5;0.1;2.2;1500;3;-0.9526277;0.9499994;-0.9125977;0.9745644;0.7070663;2.342649;0.6775497;2.337116;
637950532631316257;1182.578;26;7;4.5;0.1;2.2;2510;1.79282868525896;1.083289;1.691013;1.081234;1.701928;-0.9526277;0.9499994;-0.9125977;0.9745644;
637950532644309171;1183.878;26;7;4.5;0.1;2.2;1299;3.46420323325635;-1.083289;1.691012;-1.038996;1.697373;1.083289;1.691013;1.081234;1.701928;
637950532660302762;1185.477;26;7;4.5;0.1;2.2;1599;2.81425891181989;0.9526281;0.9500003;0.9663075;0.9737152;-1.083289;1.691012;-1.038996;1.697373;
637950532676296350;1187.077;26;7;4.5;0.1;2.2;1599;2.81425891181989;-0.7070671;2.342648;-0.6857458;2.325567;0.9526281;0.9500003;0.9663075;0.9737152;
637950532693290165;1188.776;26;7;4.5;0.1;2.2;1699;2.64861683343143;0.3762226;0.4663382;0.3797794;0.4678695;-0.7070671;2.342648;-0.6857458;2.325567;
637950532718275771;1191.274;26;7;4;0.1;1.4;1399;2.85918513223731;-0.2394138;0.8422151;-0.2268637;0.8483086;0;2.2;0.02210001;2.219489;
637950532729268239;1192.374;26;7;4;0.1;1.4;1099;3.63967242948135;0.4499513;2.036231;0.4318916;2.003062;-0.2394138;0.8422151;-0.2268637;0.8483086;
637950532746272062;1194.073;26;7;4;0.1;1.4;1699;2.35432607416127;-0.6062176;1.15;-0.5775062;1.149639;0.4499513;2.036231;0.4318916;2.003062;
637950532758254746;1195.273;26;7;4;0.1;1.4;1199;3.33611342785655;0.6893654;1.621554;0.6537699;1.607043;-0.6062176;1.15;-0.5775062;1.149639;
637950532770257438;1196.472;26;7;4;0.1;1.4;1199;3.33611342785655;-0.6893655;1.621553;-0.6728288;1.634917;0.6893654;1.621554;0.6537699;1.607043;
637950532782360157;1197.682;26;7;4;0.1;1.4;1210;3.30578512396694;0.6062179;1.15;0.6163052;1.195018;-0.6893655;1.621553;-0.6728288;1.634917;
637950532794348073;1198.882;26;7;4;0.1;1.4;1200;3.33333333333333;-0.4499517;2.036231;-0.4446076;1.99534;0.6062179;1.15;0.6163052;1.195018;
637950532812339163;1200.681;26;7;4;0.1;1.4;1799;2.22345747637576;0.2394144;0.8422153;0.2534019;0.8760046;-0.4499517;2.036231;-0.4446076;1.99534;
637950532831330044;1202.58;26;7;2.5;0.3;1.4;800;3.125;-0.2394138;0.8422151;-0.2223559;0.7697074;0;2.2;0.06156067;2.15164;
637950532840322064;1203.48;26;7;2.5;0.3;1.4;899;2.78086763070078;0.4499513;2.036231;0.3843142;2.085089;-0.2394138;0.8422151;-0.2223559;0.7697074;
637950532849324083;1204.38;26;7;2.5;0.3;1.4;900;2.77777777777778;-0.6062176;1.15;-0.6782098;1.242807;0.4499513;2.036231;0.3843142;2.085089;
637950532857319798;1205.179;26;7;2.5;0.3;1.4;800;3.125;0.6893654;1.621554;0.6913197;1.625924;-0.6062176;1.15;-0.6782098;1.242807;
637950532865316522;1205.979;26;7;2.5;0.3;1.4;799;3.12891113892365;-0.6893655;1.621553;-0.5937005;1.631882;0.6893654;1.621554;0.6913197;1.625924;
637950532888311685;1208.278;26;7;2.5;0.3;1.4;2299;1.08742931709439;0.6062179;1.15;0.596993;1.135723;-0.6893655;1.621553;-0.5937005;1.631882;
637950532898303927;1209.277;26;7;2.5;0.3;1.4;999;2.5025025025025;-0.4499517;2.036231;-0.4273503;2.00227;0.6062179;1.15;0.596993;1.135723;
637950532907295944;1210.177;26;7;2.5;0.3;1.4;900;2.77777777777778;0.2394144;0.8422153;0.2498814;0.888517;-0.4499517;2.036231;-0.4273503;2.00227;
637950532922399326;1211.687;26;7;1.5;1.1;2;700;2.14285714285714;-0.3420197;0.5603072;-0.1121163;0.8722328;0;2.5;0.07487403;2.237643;
637950532929400906;1212.387;26;7;1.5;1.1;2;700;2.14285714285714;0.6427875;2.266045;0.3183143;1.994738;-0.3420197;0.5603072;-0.1121163;0.8722328;
637950532937392694;1213.186;26;7;1.5;1.1;2;800;1.875;-0.8660251;0.9999995;-0.4988251;1.19995;0.6427875;2.266045;0.3183143;1.994738;
637950532944394270;1213.886;26;7;1.5;1.1;2;700;2.14285714285714;0.9848077;1.673648;0.7559968;1.823445;-0.8660251;0.9999995;-0.4988251;1.19995;
637950532950395616;1214.486;26;7;1.5;1.1;2;600;2.5;-0.9848078;1.673648;-0.7645227;1.753925;0.9848077;1.673648;0.7559968;1.823445;
637950532959377632;1215.385;26;7;1.5;1.1;2;900;1.66666666666667;0.8660256;1;0.5491279;1.204733;-0.9848078;1.673648;-0.7645227;1.753925;
637950532968379653;1216.285;26;7;1.5;1.1;2;900;1.66666666666667;-0.6427882;2.266044;-0.3641073;2.041537;0.8660256;1;0.5491279;1.204733;
637950532975381225;1216.985;26;7;1.5;1.1;2;700;2.14285714285714;0.3420205;0.5603075;0.2062156;0.9540671;-0.6427882;2.266044;-0.3641073;2.041537;
637950532995365709;1218.984;26;7;3;0.2;1.4;899;3.33704115684093;-0.2394138;0.8422151;-0.1873194;0.8324542;0;2.2;0.008080735;2.179187;
637950533007358394;1220.183;26;7;3;0.2;1.4;1200;2.5;0.4499513;2.036231;0.41364;2.023165;-0.2394138;0.8422151;-0.1873194;0.8324542;
637950533021351541;1221.583;26;7;3;0.2;1.4;1399;2.14438884917798;-0.6062176;1.15;-0.5692947;1.182036;0.4499513;2.036231;0.41364;2.023165;
637950533031353785;1222.582;26;7;3;0.2;1.4;1000;3;0.6893654;1.621554;0.6762956;1.609936;-0.6062176;1.15;-0.5692947;1.182036;
637950533042346253;1223.682;26;7;3;0.2;1.4;1100;2.72727272727273;-0.6893655;1.621553;-0.6920252;1.629646;0.6893654;1.621554;0.6762956;1.609936;
637950533053338724;1224.781;26;7;3;0.2;1.4;1099;2.72975432211101;0.6062179;1.15;0.6191585;1.244874;-0.6893655;1.621553;-0.6920252;1.629646;
637950533063340963;1225.781;26;7;3;0.2;1.4;1000;3;-0.4499517;2.036231;-0.4554117;2.037947;0.6062179;1.15;0.6191585;1.244874;
637950533071332758;1226.58;26;7;3;0.2;1.4;800;3.75;0.2394144;0.8422153;0.2361509;0.8758246;-0.4499517;2.036231;-0.4554117;2.037947;
637950533085435923;1227.991;26;7;2;0.6;1.8;800;2.5;-0.3078177;0.6542765;-0.2178621;0.8523638;0;2.4;0.01373523;2.2017;
637950533093437721;1228.791;26;7;2;0.6;1.8;800;2.5;0.5785087;2.18944;0.4134431;2.138027;-0.3078177;0.6542765;-0.2178621;0.8523638;
637950533101429513;1229.59;26;7;2;0.6;1.8;799;2.50312891113892;-0.7794226;1.05;-0.7260051;1.131831;0.5785087;2.18944;0.4134431;2.138027;
637950533108431083;1230.29;26;7;2;0.6;1.8;700;2.85714285714286;0.8863269;1.656283;0.7026331;1.705996;-0.7794226;1.05;-0.7260051;1.131831;
637950533115422653;1230.99;26;7;2;0.6;1.8;700;2.85714285714286;-0.8863271;1.656283;-0.6801065;1.672185;0.8863269;1.656283;0.7026331;1.705996;
637950533122414222;1231.689;26;7;2;0.6;1.8;699;2.86123032904149;0.779423;1.05;0.6801133;1.164522;-0.8863271;1.656283;-0.6801065;1.672185;
637950533130416019;1232.489;26;7;2;0.6;1.8;800;2.5;-0.5785094;2.18944;-0.5561168;2.094057;0.779423;1.05;0.6801133;1.164522;
637950533138412863;1233.288;26;7;2;0.6;1.8;800;2.5;0.3078185;0.6542768;0.3247628;0.897862;-0.5785094;2.18944;-0.5561168;2.094057;
637950533157404990;1235.187;26;7;3.5;0.2;2;1100;3.18181818181818;-0.3420197;0.5603072;-0.3075124;0.6247513;0;2.5;-0.008816614;2.434389;
637950533167397233;1236.187;26;7;3.5;0.2;2;1000;3.5;0.6427875;2.266045;0.6007224;2.220124;-0.3420197;0.5603072;-0.3075124;0.6247513;
637950533174398804;1236.887;26;7;3.5;0.2;2;700;5;-0.8660251;0.9999995;-0.8439801;0.9424751;0.6427875;2.266045;0.6007224;2.220124;
637950533193387308;1238.786;26;7;3.5;0.2;2;1899;1.84307530279094;0.9848077;1.673648;0.9677979;1.721672;-0.8660251;0.9999995;-0.8439801;0.9424751;
637950533203379094;1239.785;26;7;3.5;0.2;2;1000;3.5;-0.9848078;1.673648;-1.015162;1.647961;0.9848077;1.673648;0.9677979;1.721672;
637950533226484283;1242.095;26;7;3.5;0.2;2;2310;1.51515151515152;0.8660256;1;0.8283382;1.046698;-0.9848078;1.673648;-1.015162;1.647961;
637950533236476527;1243.095;26;7;3.5;0.2;2;1000;3.5;-0.6427882;2.266044;-0.6942221;2.212218;0.8660256;1;0.8283382;1.046698;
637950533250469666;1244.494;26;7;3.5;0.2;2;1399;2.50178699070765;0.3420205;0.5603075;0.2823597;0.6058112;-0.6427882;2.266044;-0.6942221;2.212218;
