637951188517915525;271.9877;27;0;2;0.6;1.8;1300;1.53846153846154;-0.3078177;0.6542765;-0.2584035;0.8008932;0;2.4;-0.0319321;2.325051;
637951188532900368;273.4868;27;0;2;0.6;1.8;1499;1.33422281521014;0.5785087;2.18944;0.5876487;2.170811;-0.3078177;0.6542765;-0.2584035;0.8008932;
637951188554887468;275.6858;27;0;2;0.6;1.8;2199;0.909504320145521;-0.7794226;1.05;-0.5896899;1.207661;0.5785087;2.18944;0.5876487;2.170811;
637951188567891671;276.9853;27;0;2;0.6;1.8;1299;1.53964588144727;0.8863269;1.656283;0.8170009;1.591688;-0.7794226;1.05;-0.5896899;1.207661;
637951188598871678;280.0837;27;0;2;0.6;1.8;3098;0.645577792123951;-0.8863271;1.656283;-0.7612183;1.532631;0.8863269;1.656283;0.8170009;1.591688;
637951188611875882;281.3832;27;0;2;0.6;1.8;1300;1.53846153846154;0.779423;1.05;0.5568368;1.184198;-0.8863271;1.656283;-0.7612183;1.532631;
637951188627861044;282.9822;27;0;2;0.6;1.8;1599;1.25078173858662;-0.5785094;2.18944;-0.4733625;2.206748;0.779423;1.05;0.5568368;1.184198;
637951188639974959;284.193;27;0;2;0.6;1.8;1211;1.65152766308836;0.3078185;0.6542768;0.228488;0.7597662;-0.5785094;2.18944;-0.4733625;2.206748;
637951188702060072;290.4011;27;0;4.5;0.1;2.2;1799;2.50138966092273;-0.3762217;0.4663379;-0.3962472;0.4969518;0;2.6;-0.008378321;2.575244;
637951188736044659;293.7994;27;0;4.5;0.1;2.2;3398;1.32430841671572;0.7070663;2.342649;0.6978515;2.338905;-0.3762217;0.4663379;-0.3962472;0.4969518;
637951188773038954;297.4984;27;0;4.5;0.1;2.2;3699;1.21654501216545;-0.9526277;0.9499994;-0.9394076;0.986895;0.7070663;2.342649;0.6978515;2.338905;
637951188797029447;299.8968;27;0;4.5;0.1;2.2;2398;1.87656380316931;1.083289;1.691013;1.075254;1.701229;-0.9526277;0.9499994;-0.9394076;0.986895;
637951188820126908;302.2071;27;0;4.5;0.1;2.2;2310;1.94805194805195;-1.083289;1.691012;-1.034156;1.693266;1.083289;1.691013;1.075254;1.701229;
637951188831130461;303.3062;27;0;4.5;0.1;2.2;1099;4.09463148316652;0.9526281;0.9500003;0.9849707;0.9274228;-1.083289;1.691012;-1.034156;1.693266;
637951188852127246;305.4053;27;0;4.5;0.1;2.2;2099;2.14387803716055;-0.7070671;2.342648;-0.6894802;2.325172;0.9526281;0.9500003;0.9849707;0.9274228;
637951188873104014;307.5044;27;0;4.5;0.1;2.2;2099;2.14387803716055;0.3762226;0.4663382;0.395105;0.5041207;-0.7070671;2.342648;-0.6894802;2.325172;
637951188916087909;311.8022;27;0;4;0.1;1.4;1799;2.22345747637576;-0.2394138;0.8422151;-0.2122034;0.8530984;0;2.2;0.001550414;2.194241;
637951188933083399;313.5016;27;0;4;0.1;1.4;1699;2.35432607416127;0.4499513;2.036231;0.40315;2.028015;-0.2394138;0.8422151;-0.2122034;0.8530984;
637951188949078569;315.101;27;0;4;0.1;1.4;1599;2.50156347717323;-0.6062176;1.15;-0.5886543;1.17276;0.4499513;2.036231;0.40315;2.028015;
637951188971185713;317.3112;27;0;4;0.1;1.4;2210;1.80995475113122;0.6893654;1.621554;0.6611162;1.593347;-0.6062176;1.15;-0.5886543;1.17276;
637951188994403213;319.6396;27;0;4;0.1;1.4;2328;1.71821305841924;-0.6893655;1.621553;-0.6429963;1.637222;0.6893654;1.621554;0.6611162;1.593347;
637951189030164762;323.2081;27;0;4;0.1;1.4;3568;1.12107623318386;0.6062179;1.15;0.6215189;1.123257;-0.6893655;1.621553;-0.6429963;1.637222;
637951189050151222;325.207;27;0;4;0.1;1.4;1999;2.00100050025012;-0.4499517;2.036231;-0.4766754;2.020576;0.6062179;1.15;0.6215189;1.123257;
637951189081143681;328.3057;27;0;4;0.1;1.4;3099;1.29073894804776;0.2394144;0.8422153;0.2274324;0.8820094;-0.4499517;2.036231;-0.4766754;2.020576;
637951189116129729;331.8042;27;0;2.5;0.3;1.4;1999;1.25062531265633;-0.2394138;0.8422151;-0.1780033;0.9402498;0;2.2;0.01799336;2.16878;
637951189130127332;333.2036;27;0;2.5;0.3;1.4;1399;1.78699070764832;0.4499513;2.036231;0.4340123;2.005766;-0.2394138;0.8422151;-0.1780033;0.9402498;
637951189142236780;334.4143;27;0;2.5;0.3;1.4;1211;2.06440957886045;-0.6062176;1.15;-0.4970349;1.114395;0.4499513;2.036231;0.4340123;2.005766;
637951189156231302;335.8134;27;0;2.5;0.3;1.4;1399;1.78699070764832;0.6893654;1.621554;0.6998611;1.60991;-0.6062176;1.15;-0.4970349;1.114395;
637951189172216460;337.4124;27;0;2.5;0.3;1.4;1599;1.56347717323327;-0.6893655;1.621553;-0.5961485;1.543054;0.6893654;1.621554;0.6998611;1.60991;
637951189189221960;339.1122;27;0;2.5;0.3;1.4;1700;1.47058823529412;0.6062179;1.15;0.5669929;1.196972;-0.6893655;1.621553;-0.5961485;1.543054;
637951189219201641;342.1103;27;0;2.5;0.3;1.4;2998;0.833889259506338;-0.4499517;2.036231;-0.437227;1.96598;0.6062179;1.15;0.5669929;1.196972;
637951189242199070;344.4096;27;0;2.5;0.3;1.4;2299;1.08742931709439;0.2394144;0.8422153;0.2182312;0.9596938;-0.4499517;2.036231;-0.437227;1.96598;
637951189278180698;348.0078;27;0;3;0.2;1.4;1999;1.50075037518759;-0.2394138;0.8422151;-0.2022877;0.9184815;0;2.2;0.0267644;2.173042;
637951189294285900;349.618;27;0;3;0.2;1.4;1610;1.86335403726708;0.4499513;2.036231;0.4439343;1.997516;-0.2394138;0.8422151;-0.2022877;0.9184815;
637951189311281394;351.3174;27;0;3;0.2;1.4;1699;1.76574455562095;-0.6062176;1.15;-0.5245098;1.205508;0.4499513;2.036231;0.4439343;1.997516;
637951189329277207;353.1167;27;0;3;0.2;1.4;1799;1.66759310728182;0.6893654;1.621554;0.6186761;1.578046;-0.6062176;1.15;-0.5245098;1.205508;
637951189344272052;354.616;27;0;3;0.2;1.4;1499;2.00133422281521;-0.6893655;1.621553;-0.6192838;1.596286;0.6893654;1.621554;0.6186761;1.578046;
637951189380253680;358.2139;27;0;3;0.2;1.4;3598;0.833796553640912;0.6062179;1.15;0.6042753;1.188463;-0.6893655;1.621553;-0.6192838;1.596286;
637951189422351353;362.4233;27;0;3;0.2;1.4;4209;0.712758374910905;-0.4499517;2.036231;-0.420877;2.015385;0.6062179;1.15;0.6042753;1.188463;
637951189432344579;363.4229;27;0;3;0.2;1.4;1000;3;0.2394144;0.8422153;0.1628624;0.8468896;-0.4499517;2.036231;-0.420877;2.015385;
637951189456352339;365.8225;27;0;3.5;0.2;2;1400;2.5;-0.3420197;0.5603072;-0.332766;0.5891484;0;2.5;-0.03201843;2.447242;
637951189481328356;368.3206;27;0;3.5;0.2;2;2498;1.40112089671737;0.6427875;2.266045;0.6682033;2.233857;-0.3420197;0.5603072;-0.332766;0.5891484;
637951189496323892;369.8198;27;0;3.5;0.2;2;1499;2.33488992661775;-0.8660251;0.9999995;-0.7854524;1.016221;0.6427875;2.266045;0.6682033;2.233857;
637951189514315486;371.6187;27;0;3.5;0.2;2;1799;1.94552529182879;0.9848077;1.673648;0.9370784;1.618922;-0.8660251;0.9999995;-0.7854524;1.016221;
637951189523311661;372.5186;27;0;3.5;0.2;2;900;3.88888888888889;-0.9848078;1.673648;-0.9440106;1.682205;0.9848077;1.673648;0.9370784;1.618922;
637951189534305212;373.6179;27;0;3.5;0.2;2;1099;3.18471337579618;0.8660256;1;0.7956415;1.056742;-0.9848078;1.673648;-0.9440106;1.682205;
637951189555412032;375.7279;27;0;3.5;0.2;2;2110;1.65876777251185;-0.6427882;2.266044;-0.6416894;2.25048;0.8660256;1;0.7956415;1.056742;
637951189570406874;377.2276;27;0;3.5;0.2;2;1500;2.33333333333333;0.3420205;0.5603075;0.2838044;0.5940735;-0.6427882;2.266044;-0.6416894;2.25048;
637951189589403013;379.1264;27;0;1.5;1.1;2;1000;1.5;-0.3420197;0.5603072;-0.3056035;0.9004091;0;2.5;-0.01855064;2.393406;
637951189600396562;380.226;27;0;1.5;1.1;2;1100;1.36363636363636;0.6427875;2.266045;0.483524;2.014831;-0.3420197;0.5603072;-0.3056035;0.9004091;
637951189610399798;381.2257;27;0;1.5;1.1;2;1000;1.5;-0.8660251;0.9999995;-0.6295817;1.256211;0.6427875;2.266045;0.483524;2.014831;
637951189622383671;382.4248;27;0;1.5;1.1;2;1199;1.25104253544621;0.9848077;1.673648;0.7068275;1.637737;-0.8660251;0.9999995;-0.6295817;1.256211;
637951189632386903;383.4247;27;0;1.5;1.1;2;1000;1.5;-0.9848078;1.673648;-0.7567488;1.77525;0.9848077;1.673648;0.7068275;1.637737;
637951189643380457;384.5243;27;0;1.5;1.1;2;1100;1.36363636363636;0.8660256;1;0.5968549;1.205936;-0.9848078;1.673648;-0.7567488;1.77525;
637951189653373681;385.5235;27;0;1.5;1.1;2;999;1.5015015015015;-0.6427882;2.266044;-0.479168;2.198296;0.8660256;1;0.5968549;1.205936;
637951189663376913;386.5233;27;0;1.5;1.1;2;1000;1.5;0.3420205;0.5603075;0.1804507;0.8536521;-0.6427882;2.266044;-0.479168;2.198296;
637951191286123125;548.7813;27;1;3.5;0.2;2;1300;2.69230769230769;-0.3420197;0.5603072;-0.2802619;0.6261563;0;2.5;-0.02205877;2.432187;
637951191315102482;551.6799;27;1;3.5;0.2;2;2899;1.20731286650569;0.6427875;2.266045;0.6395076;2.224632;-0.3420197;0.5603072;-0.2802619;0.6261563;
637951191323425176;552.5189;27;1;3.5;0.2;2;839;4.17163289630513;-0.8660251;0.9999995;-0.7976986;1.072143;0.6427875;2.266045;0.6395076;2.224632;
637951191335098949;553.6788;27;1;3.5;0.2;2;1160;3.01724137931034;0.9848077;1.673648;0.9080738;1.627564;-0.8660251;0.9999995;-0.7976986;1.072143;
637951191348093142;554.9783;27;1;3.5;0.2;2;1299;2.69438029253272;-0.9848078;1.673648;-1.044376;1.637539;0.9848077;1.673648;0.9080738;1.627564;
637951191361087342;556.2779;27;1;3.5;0.2;2;1300;2.69230769230769;0.8660256;1;0.785299;1.02749;-0.9848078;1.673648;-1.044376;1.637539;
637951191375087549;557.6772;27;1;3.5;0.2;2;1399;2.50178699070765;-0.6427882;2.266044;-0.6917288;2.210894;0.8660256;1;0.785299;1.02749;
637951191388078579;558.9765;27;1;3.5;0.2;2;1299;2.69438029253272;0.3420205;0.5603075;0.3169596;0.6255435;-0.6427882;2.266044;-0.6917288;2.210894;
637951191416484363;561.8237;27;1;3;0.2;1.4;1836;1.63398692810458;-0.2394138;0.8422151;-0.231685;0.9399883;0;2.2;-0.01585634;2.23173;
637951191433175768;563.4854;27;1;3;0.2;1.4;1662;1.80505415162455;0.4499513;2.036231;0.4167048;2.065472;-0.2394138;0.8422151;-0.231685;0.9399883;
637951191451161642;565.2845;27;1;3;0.2;1.4;1799;1.66759310728182;-0.6062176;1.15;-0.5259301;1.168341;0.4499513;2.036231;0.4167048;2.065472;
637951191462165198;566.3843;27;1;3;0.2;1.4;1100;2.72727272727273;0.6893654;1.621554;0.7292343;1.595995;-0.6062176;1.15;-0.5259301;1.168341;
637951191475159395;567.6837;27;1;3;0.2;1.4;1299;2.3094688221709;-0.6893655;1.621553;-0.6649224;1.621685;0.6893654;1.621554;0.7292343;1.595995;
637951191487153270;568.8831;27;1;3;0.2;1.4;1199;2.50208507089241;0.6062179;1.15;0.5120427;1.163955;-0.6893655;1.621553;-0.6649224;1.621685;
637951191498146824;569.9826;27;1;3;0.2;1.4;1099;2.72975432211101;-0.4499517;2.036231;-0.445056;2.07524;0.6062179;1.15;0.5120427;1.163955;
637951191520273969;572.195;27;1;3;0.2;1.4;2212;1.35623869801085;0.2394144;0.8422153;0.2513512;0.8851066;-0.4499517;2.036231;-0.445056;2.07524;
637951191547242684;574.8914;27;1;4;0.1;1.4;1400;2.85714285714286;-0.2394138;0.8422151;-0.2301978;0.8894888;0;2.2;-0.01699438;2.211515;
637951191570570221;577.231;27;1;4;0.1;1.4;2340;1.70940170940171;0.4499513;2.036231;0.4391901;1.988408;-0.2394138;0.8422151;-0.2301978;0.8894888;
637951191606331776;580.7999;27;1;4;0.1;1.4;3569;1.1207621182404;-0.6062176;1.15;-0.6047193;1.1524;0.4499513;2.036231;0.4391901;1.988408;
637951191627328557;582.8987;27;1;4;0.1;1.4;2099;1.90566936636494;0.6893654;1.621554;0.6527832;1.605614;-0.6062176;1.15;-0.6047193;1.1524;
637951191647325019;584.8984;27;1;4;0.1;1.4;2000;2;-0.6893655;1.621553;-0.6448316;1.644188;0.6893654;1.621554;0.6527832;1.605614;
637951191669422158;587.1078;27;1;4;0.1;1.4;2209;1.81077410593029;0.6062179;1.15;0.5880792;1.123755;-0.6893655;1.621553;-0.6448316;1.644188;
637951191682416354;588.4077;27;1;4;0.1;1.4;1300;3.07692307692308;-0.4499517;2.036231;-0.4193764;2.014693;0.6062179;1.15;0.5880792;1.123755;
637951191713406368;591.506;27;1;4;0.1;1.4;3098;1.2911555842479;0.2394144;0.8422153;0.2387229;0.8736075;-0.4499517;2.036231;-0.4193764;2.014693;
637951191733398388;593.505;27;1;2.5;0.3;1.4;1000;2.5;-0.2394138;0.8422151;-0.2181291;0.8664273;0;2.2;-0.03070829;2.154263;
637951191743391614;594.5043;27;1;2.5;0.3;1.4;999;2.5025025025025;0.4499513;2.036231;0.391401;2.024297;-0.2394138;0.8422151;-0.2181291;0.8664273;
637951191769385969;597.1031;27;1;2.5;0.3;1.4;2599;0.961908426317814;-0.6062176;1.15;-0.5681447;1.158973;0.4499513;2.036231;0.391401;2.024297;
637951191780383944;598.2028;27;1;2.5;0.3;1.4;1100;2.27272727272727;0.6893654;1.621554;0.589292;1.611215;-0.6062176;1.15;-0.5681447;1.158973;
637951191791374694;599.3022;27;1;2.5;0.3;1.4;1099;2.27479526842584;-0.6893655;1.621553;-0.648873;1.630664;0.6893654;1.621554;0.589292;1.611215;
637951191801486264;600.313;27;1;2.5;0.3;1.4;1011;2.47279920870425;0.6062179;1.15;0.5557678;1.210234;-0.6893655;1.621553;-0.648873;1.630664;
637951191813479676;601.5125;27;1;2.5;0.3;1.4;1200;2.08333333333333;-0.4499517;2.036231;-0.4191867;2.037317;0.6062179;1.15;0.5557678;1.210234;
637951191830470952;603.2114;27;1;2.5;0.3;1.4;1699;1.47145379635079;0.2394144;0.8422153;0.1870891;0.8974231;-0.4499517;2.036231;-0.4191867;2.037317;
637951191847471588;604.9109;27;1;1.5;1.1;2;800;1.875;-0.3420197;0.5603072;-0.3179422;0.8312405;0;2.5;-0.02050918;2.284905;
637951191857459980;605.9105;27;1;1.5;1.1;2;1000;1.5;0.6427875;2.266045;0.419051;2.161479;-0.3420197;0.5603072;-0.3179422;0.8312405;
637951191867464247;606.91;27;1;1.5;1.1;2;1000;1.5;-0.8660251;0.9999995;-0.4804397;1.142537;0.6427875;2.266045;0.419051;2.161479;
637951191876455046;607.8094;27;1;1.5;1.1;2;899;1.66852057842047;0.9848077;1.673648;0.7691617;1.617594;-0.8660251;0.9999995;-0.4804397;1.142537;
637951191886448542;608.8091;27;1;1.5;1.1;2;1000;1.5;-0.9848078;1.673648;-0.5954732;1.633306;0.9848077;1.673648;0.7691617;1.617594;
637951191895451473;609.7086;27;1;1.5;1.1;2;899;1.66852057842047;0.8660256;1;0.5598687;1.149124;-0.9848078;1.673648;-0.5954732;1.633306;
637951191905444705;610.7084;27;1;1.5;1.1;2;1000;1.5;-0.6427882;2.266044;-0.3859639;2.132693;0.8660256;1;0.5598687;1.149124;
637951191913547318;611.5186;27;1;1.5;1.1;2;810;1.85185185185185;0.3420205;0.5603075;0.2415006;1.010354;-0.6427882;2.266044;-0.3859639;2.132693;
637951191942536684;614.4174;27;1;2;0.6;1.8;1000;2;-0.3078177;0.6542765;-0.3829918;0.8471686;0;2.4;0.01337627;2.182585;
637951191952539910;615.4171;27;1;2;0.6;1.8;1000;2;0.5785087;2.18944;0.42817;2.1818;-0.3078177;0.6542765;-0.3829918;0.8471686;
637951191962533145;616.4165;27;1;2;0.6;1.8;999;2.002002002002;-0.7794226;1.05;-0.6812364;1.120861;0.5785087;2.18944;0.42817;2.1818;
637951191972526374;617.416;27;1;2;0.6;1.8;1000;2;0.8863269;1.656283;0.7109015;1.691479;-0.7794226;1.05;-0.6812364;1.120861;
637951191981529282;618.3157;27;1;2;0.6;1.8;900;2.22222222222222;-0.8863271;1.656283;-0.9216872;1.682968;0.8863269;1.656283;0.7109015;1.691479;
637951191990522187;619.215;27;1;2;0.6;1.8;899;2.22469410456062;0.779423;1.05;0.6611484;1.190896;-0.8863271;1.656283;-0.9216872;1.682968;
637951192000515418;620.2146;27;1;2;0.6;1.8;1000;2;-0.5785094;2.18944;-0.6616425;2.125693;0.779423;1.05;0.6611484;1.190896;
637951192009518322;621.1143;27;1;2;0.6;1.8;900;2.22222222222222;0.3078185;0.6542768;0.2155015;0.8950297;-0.5785094;2.18944;-0.6616425;2.125693;
637951192051501889;625.3127;27;1;4.5;0.1;2.2;3060;1.47058823529412;-0.3762217;0.4663379;-0.3465613;0.5058231;0;2.6;0.01655377;2.641661;
637951192085602900;628.7222;27;1;4.5;0.1;2.2;3409;1.32003520093869;0.7070663;2.342649;0.7028404;2.342568;-0.3762217;0.4663379;-0.3465613;0.5058231;
637951192103588716;630.5211;27;1;4.5;0.1;2.2;1799;2.50138966092273;-0.9526277;0.9499994;-0.9098207;0.9499043;0.7070663;2.342649;0.7028404;2.342568;
637951192124595509;632.6205;27;1;4.5;0.1;2.2;2099;2.14387803716055;1.083289;1.691013;1.059397;1.670715;-0.9526277;0.9499994;-0.9098207;0.9499043;
637951192152574542;635.4189;27;1;4.5;0.1;2.2;2798;1.60829163688349;-1.083289;1.691012;-1.04564;1.701628;1.083289;1.691013;1.059397;1.670715;
637951192174891753;637.6572;27;1;4.5;0.1;2.2;2238;2.01072386058981;0.9526281;0.9500003;0.9718246;0.9943383;-1.083289;1.691012;-1.04564;1.701628;
637951192194567782;639.6171;27;1;4.5;0.1;2.2;1960;2.29591836734694;-0.7070671;2.342648;-0.6942478;2.31276;0.9526281;0.9500003;0.9718246;0.9943383;
637951192216819943;641.8503;27;1;4.5;0.1;2.2;2233;2.01522615315719;0.3762226;0.4663382;0.4139241;0.4957154;-0.7070671;2.342648;-0.6942478;2.31276;
637951193211306233;741.2809;27;2;1.5;1.1;2;911;1.64654226125137;-0.3420197;0.5603072;-0.2574339;0.95718;0;2.5;-0.01327237;2.374771;
637951193220299140;742.1807;27;2;1.5;1.1;2;900;1.66666666666667;0.6427875;2.266045;0.529177;1.925276;-0.3420197;0.5603072;-0.2574339;0.95718;
637951193230302372;743.1804;27;2;1.5;1.1;2;1000;1.5;-0.8660251;0.9999995;-0.6328346;1.29666;0.6427875;2.266045;0.529177;1.925276;
637951193239295277;744.0797;27;2;1.5;1.1;2;899;1.66852057842047;0.9848077;1.673648;0.6921923;1.66165;-0.8660251;0.9999995;-0.6328346;1.29666;
637951193248288179;744.9794;27;2;1.5;1.1;2;900;1.66666666666667;-0.9848078;1.673648;-0.759184;1.69073;0.9848077;1.673648;0.6921923;1.66165;
637951193257291089;745.8788;27;2;1.5;1.1;2;899;1.66852057842047;0.8660256;1;0.6432667;1.276384;-0.9848078;1.673648;-0.759184;1.69073;
637951193266283995;746.7784;27;2;1.5;1.1;2;900;1.66666666666667;-0.6427882;2.266044;-0.4571289;2.053949;0.8660256;1;0.6432667;1.276384;
637951193282269159;748.3775;27;2;1.5;1.1;2;1599;0.938086303939963;0.3420205;0.5603075;0.2905171;1.054487;-0.6427882;2.266044;-0.4571289;2.053949;
637951193306266914;750.7765;27;2;3.5;0.2;2;1300;2.69230769230769;-0.3420197;0.5603072;-0.3288203;0.6478813;0;2.5;-0.03285759;2.566959;
637951193319261110;752.076;27;2;3.5;0.2;2;1299;2.69438029253272;0.6427875;2.266045;0.582707;2.221702;-0.3420197;0.5603072;-0.3288203;0.6478813;
637951193337256919;753.8754;27;2;3.5;0.2;2;1799;1.94552529182879;-0.8660251;0.9999995;-0.9067169;1.051695;0.6427875;2.266045;0.582707;2.221702;
637951193350251122;755.1745;27;2;3.5;0.2;2;1299;2.69438029253272;0.9848077;1.673648;0.9739568;1.71327;-0.8660251;0.9999995;-0.9067169;1.051695;
637951193360254354;756.1744;27;2;3.5;0.2;2;1000;3.5;-0.9848078;1.673648;-0.910553;1.656109;0.9848077;1.673648;0.9739568;1.71327;
637951193379350528;758.0842;27;2;3.5;0.2;2;1910;1.83246073298429;0.8660256;1;0.864564;1.061526;-0.9848078;1.673648;-0.910553;1.656109;
637951193391344396;759.2836;27;2;3.5;0.2;2;1199;2.91909924937448;-0.6427882;2.266044;-0.613106;2.261496;0.8660256;1;0.864564;1.061526;
637951193409336941;761.0831;27;2;3.5;0.2;2;1799;1.94552529182879;0.3420205;0.5603075;0.3837289;0.6487157;-0.6427882;2.266044;-0.613106;2.261496;
637951193429329791;763.0817;27;2;2;0.6;1.8;999;2.002002002002;-0.3078177;0.6542765;-0.2399332;0.7198312;0;2.4;-0.1106448;2.401931;
637951193439323019;764.0813;27;2;2;0.6;1.8;1000;2;0.5785087;2.18944;0.5706208;2.0528;-0.3078177;0.6542765;-0.2399332;0.7198312;
637951193449326254;765.0809;27;2;2;0.6;1.8;1000;2;-0.7794226;1.05;-0.767247;1.065052;0.5785087;2.18944;0.5706208;2.0528;
637951193458319161;765.9805;27;2;2;0.6;1.8;900;2.22222222222222;0.8863269;1.656283;0.7238394;1.64974;-0.7794226;1.05;-0.767247;1.065052;
637951193468325443;766.9803;27;2;2;0.6;1.8;1000;2;-0.8863271;1.656283;-0.745456;1.676618;0.8863269;1.656283;0.7238394;1.64974;
637951193477316232;767.8796;27;2;2;0.6;1.8;899;2.22469410456062;0.779423;1.05;0.6882509;1.059311;-0.8863271;1.656283;-0.745456;1.676618;
637951193486316778;768.7793;27;2;2;0.6;1.8;900;2.22222222222222;-0.5785094;2.18944;-0.4274093;2.12239;0.779423;1.05;0.6882509;1.059311;
637951193498308074;769.9788;27;2;2;0.6;1.8;1199;1.66805671392827;0.3078185;0.6542768;0.2523662;0.8328171;-0.5785094;2.18944;-0.4274093;2.12239;
637951193550400807;775.1874;27;2;4.5;0.1;2.2;3098;1.45255003227889;-0.3762217;0.4663379;-0.3830837;0.5109544;0;2.6;0.03344993;2.587508;
637951193572384317;777.3861;27;2;4.5;0.1;2.2;2199;2.04638472032742;0.7070663;2.342649;0.7077263;2.337831;-0.3762217;0.4663379;-0.3830837;0.5109544;
637951193600384773;780.185;27;2;4.5;0.1;2.2;2799;1.60771704180064;-0.9526277;0.9499994;-0.9175323;0.9766783;0.7070663;2.342649;0.7077263;2.337831;
637951193640482083;784.1942;27;2;4.5;0.1;2.2;4009;1.12247443252681;1.083289;1.691013;1.086853;1.676775;-0.9526277;0.9499994;-0.9175323;0.9766783;
637951193665472693;786.6931;27;2;4.5;0.1;2.2;2499;1.80072028811525;-1.083289;1.691012;-1.053993;1.695266;1.083289;1.691013;1.086853;1.676775;
637951193683458502;788.4924;27;2;4.5;0.1;2.2;1799;2.50138966092273;0.9526281;0.9500003;0.9525203;0.9804992;-1.083289;1.691012;-1.053993;1.695266;
637951193719450131;792.0908;27;2;4.5;0.1;2.2;3598;1.25069483046137;-0.7070671;2.342648;-0.6799105;2.329296;0.9526281;0.9500003;0.9525203;0.9804992;
637951193733444657;793.4899;27;2;4.5;0.1;2.2;1399;3.21658327376698;0.3762226;0.4663382;0.414286;0.4912329;-0.7070671;2.342648;-0.6799105;2.329296;
637951193769546317;797.0995;27;2;4;0.1;1.4;1699;2.35432607416127;-0.2394138;0.8422151;-0.2364586;0.8680294;0;2.2;0.01736531;2.190087;
637951193780539869;798.1987;27;2;4;0.1;1.4;1099;3.63967242948135;0.4499513;2.036231;0.4240313;2.039716;-0.2394138;0.8422151;-0.2364586;0.8680294;
637951193794534389;799.5981;27;2;4;0.1;1.4;1399;2.85918513223731;-0.6062176;1.15;-0.6299816;1.153838;0.4499513;2.036231;0.4240313;2.039716;
637951193816601516;801.7971;27;2;4;0.1;1.4;2199;1.81900864029104;0.6893654;1.621554;0.6800256;1.604358;-0.6062176;1.15;-0.6299816;1.153838;
637951193835517628;803.6964;27;2;4;0.1;1.4;1899;2.10637177461822;-0.6893655;1.621553;-0.6607822;1.603919;0.6893654;1.621554;0.6800256;1.604358;
637951193861506032;806.2952;27;2;4;0.1;1.4;2599;1.5390534821085;0.6062179;1.15;0.5979797;1.173685;-0.6893655;1.621553;-0.6607822;1.603919;
637951193884503456;808.5942;27;2;4;0.1;1.4;2299;1.73988690735102;-0.4499517;2.036231;-0.479226;2.029117;0.6062179;1.15;0.5979797;1.173685;
637951193916873913;811.8386;27;2;4;0.1;1.4;3244;1.23304562268804;0.2394144;0.8422153;0.1956106;0.8658193;-0.4499517;2.036231;-0.479226;2.029117;
637951193937590609;813.9025;27;2;3;0.2;1.4;999;3.003003003003;-0.2394138;0.8422151;-0.2418959;0.8855927;0;2.2;0.03396149;2.123503;
637951193947593840;814.9026;27;2;3;0.2;1.4;1000;3;0.4499513;2.036231;0.3996253;2.024435;-0.2394138;0.8422151;-0.2418959;0.8855927;
637951193960583108;816.2019;27;2;3;0.2;1.4;1299;2.3094688221709;-0.6062176;1.15;-0.5679987;1.188102;0.4499513;2.036231;0.3996253;2.024435;
637951193973574695;817.5011;27;2;3;0.2;1.4;1299;2.3094688221709;0.6893654;1.621554;0.6389126;1.64321;-0.6062176;1.15;-0.5679987;1.188102;
637951193991570509;819.3;27;2;3;0.2;1.4;1799;1.66759310728182;-0.6893655;1.621553;-0.6135899;1.606029;0.6893654;1.621554;0.6389126;1.64321;
637951194013562198;821.4995;27;2;3;0.2;1.4;2199;1.36425648021828;0.6062179;1.15;0.5829771;1.153767;-0.6893655;1.621553;-0.6135899;1.606029;
637951194026554565;822.7986;27;2;3;0.2;1.4;1299;2.3094688221709;-0.4499517;2.036231;-0.4635284;2.040466;0.6062179;1.15;0.5829771;1.153767;
637951194037664978;823.9092;27;2;3;0.2;1.4;1111;2.7002700270027;0.2394144;0.8422153;0.2289191;0.872681;-0.4499517;2.036231;-0.4635284;2.040466;
637951194059656864;826.1085;27;2;2.5;0.3;1.4;1200;2.08333333333333;-0.2394138;0.8422151;-0.2886282;0.7728173;0;2.2;0.0308735;2.196447;
637951194070655260;827.2078;27;2;2.5;0.3;1.4;1099;2.27479526842584;0.4499513;2.036231;0.4042297;2.158572;-0.2394138;0.8422151;-0.2886282;0.7728173;
637951194080647421;828.2072;27;2;2.5;0.3;1.4;999;2.5025025025025;-0.6062176;1.15;-0.6688637;1.171557;0.4499513;2.036231;0.4042297;2.158572;
637951194089650029;829.1068;27;2;2.5;0.3;1.4;900;2.77777777777778;0.6893654;1.621554;0.6751775;1.641282;-0.6062176;1.15;-0.6688637;1.171557;
637951194099648546;830.1064;27;2;2.5;0.3;1.4;1000;2.5;-0.6893655;1.621553;-0.6187444;1.635201;0.6893654;1.621554;0.6751775;1.641282;
637951194117642201;831.9056;27;2;2.5;0.3;1.4;1799;1.38966092273485;0.6062179;1.15;0.5195615;1.243298;-0.6893655;1.621553;-0.6187444;1.635201;
637951194126747583;832.8163;27;2;2.5;0.3;1.4;911;2.74423710208562;-0.4499517;2.036231;-0.4869886;1.993635;0.6062179;1.15;0.5195615;1.243298;
637951194138741457;834.0154;27;2;2.5;0.3;1.4;1199;2.08507089241034;0.2394144;0.8422153;0.2796009;0.9002039;-0.4499517;2.036231;-0.4869886;1.993635;
637951194953996598;915.5333;27;3;3;0.2;1.4;1099;2.72975432211101;-0.2394138;0.8422151;-0.2181713;0.820138;0;2.2;0.003837528;2.212883;
637951194969991764;917.1324;27;3;3;0.2;1.4;1599;1.87617260787993;0.4499513;2.036231;0.4284513;2.013917;-0.2394138;0.8422151;-0.2181713;0.820138;
637951194988988847;919.0319;27;3;3;0.2;1.4;1899;1.57977883096367;-0.6062176;1.15;-0.5885224;1.234452;0.4499513;2.036231;0.4284513;2.013917;
637951194998976713;920.0311;27;3;3;0.2;1.4;999;3.003003003003;0.6893654;1.621554;0.7190216;1.608731;-0.6062176;1.15;-0.5885224;1.234452;
637951195024975114;922.6299;27;3;3;0.2;1.4;2599;1.15429011158138;-0.6893655;1.621553;-0.6885173;1.621068;0.6893654;1.621554;0.7190216;1.608731;
637951195067068716;926.8392;27;3;3;0.2;1.4;4209;0.712758374910905;0.6062179;1.15;0.5629542;1.211222;-0.6893655;1.621553;-0.6885173;1.621068;
637951195078062266;927.9386;27;3;3;0.2;1.4;1099;2.72975432211101;-0.4499517;2.036231;-0.4109387;2.043581;0.6062179;1.15;0.5629542;1.211222;
637951195091056466;929.2378;27;3;3;0.2;1.4;1299;2.3094688221709;0.2394144;0.8422153;0.2424258;0.8960122;-0.4499517;2.036231;-0.4109387;2.043581;
637951195121046152;932.2363;27;3;3.5;0.2;2;1399;2.50178699070765;-0.3420197;0.5603072;-0.334005;0.6593652;0;2.5;-0.03475559;2.50987;
637951195143043262;934.4355;27;3;3.5;0.2;2;2199;1.59163256025466;0.6427875;2.266045;0.6076179;2.217756;-0.3420197;0.5603072;-0.334005;0.6593652;
637951195158028102;935.9348;27;3;3.5;0.2;2;1499;2.33488992661775;-0.8660251;0.9999995;-0.8560705;1.090524;0.6427875;2.266045;0.6076179;2.217756;
637951195172032624;937.3342;27;3;3.5;0.2;2;1399;2.50178699070765;0.9848077;1.673648;0.9078279;1.664013;-0.8660251;0.9999995;-0.8560705;1.090524;
637951195187017469;938.8334;27;3;3.5;0.2;2;1499;2.33488992661775;-0.9848078;1.673648;-0.9448134;1.673552;0.9848077;1.673648;0.9078279;1.664013;
637951195199131382;940.0441;27;3;3.5;0.2;2;1211;2.89017341040462;0.8660256;1;0.7661809;0.9953936;-0.9848078;1.673648;-0.9448134;1.673552;
637951195213125903;941.4435;27;3;3.5;0.2;2;1399;2.50178699070765;-0.6427882;2.266044;-0.6481509;2.230754;0.8660256;1;0.7661809;0.9953936;
637951195226120098;942.743;27;3;3.5;0.2;2;1300;2.69230769230769;0.3420205;0.5603075;0.3294618;0.6286782;-0.6427882;2.266044;-0.6481509;2.230754;
637951195246106559;944.7419;27;3;2;0.6;1.8;899;2.22469410456062;-0.3078177;0.6542765;-0.2328532;0.8101422;0;2.4;-0.03235723;2.287652;
637951195257110115;945.8413;27;3;2;0.6;1.8;1099;1.81983621474067;0.5785087;2.18944;0.4686293;2.010623;-0.3078177;0.6542765;-0.2328532;0.8101422;
637951195266098140;946.7408;27;3;2;0.6;1.8;899;2.22469410456062;-0.7794226;1.05;-0.701519;1.156497;0.5785087;2.18944;0.4686293;2.010623;
637951195274098172;947.5405;27;3;2;0.6;1.8;800;2.5;0.8863269;1.656283;0.7876455;1.647489;-0.7794226;1.05;-0.701519;1.156497;
637951195284101403;948.54;27;3;2;0.6;1.8;1000;2;-0.8863271;1.656283;-0.7771293;1.70158;0.8863269;1.656283;0.7876455;1.647489;
637951195298095919;949.9398;27;3;2;0.6;1.8;1400;1.42857142857143;0.779423;1.05;0.530714;1.187566;-0.8863271;1.656283;-0.7771293;1.70158;
637951195307088827;950.8392;27;3;2;0.6;1.8;899;2.22469410456062;-0.5785094;2.18944;-0.5383914;2.141812;0.779423;1.05;0.530714;1.187566;
637951195316086299;951.7384;27;3;2;0.6;1.8;899;2.22469410456062;0.3078185;0.6542768;0.3002805;0.885847;-0.5785094;2.18944;-0.5383914;2.141812;
637951195340194111;954.1489;27;3;1.5;1.1;2;1411;1.06307583274274;-0.3420197;0.5603072;-0.2243042;1.006023;0;2.5;0.003408464;2.092246;
637951195349187015;955.0482;27;3;1.5;1.1;2;899;1.66852057842047;0.6427875;2.266045;0.4782141;1.955823;-0.3420197;0.5603072;-0.2243042;1.006023;
637951195359180239;956.0476;27;3;1.5;1.1;2;999;1.5015015015015;-0.8660251;0.9999995;-0.4977932;1.287611;0.6427875;2.266045;0.4782141;1.955823;
637951195369173474;957.0472;27;3;1.5;1.1;2;1000;1.5;0.9848077;1.673648;0.5602341;1.565111;-0.8660251;0.9999995;-0.4977932;1.287611;
637951195378176378;957.9468;27;3;1.5;1.1;2;900;1.66666666666667;-0.9848078;1.673648;-0.7358961;1.700072;0.9848077;1.673648;0.5602341;1.565111;
637951195386168961;958.7463;27;3;1.5;1.1;2;800;1.875;0.8660256;1;0.70381;1.224616;-0.9848078;1.673648;-0.7358961;1.700072;
637951195395171871;959.6462;27;3;1.5;1.1;2;900;1.66666666666667;-0.6427882;2.266044;-0.4012394;2.151202;0.8660256;1;0.70381;1.224616;
637951195404164780;960.5459;27;3;1.5;1.1;2;900;1.66666666666667;0.3420205;0.5603075;0.1156344;0.8877308;-0.6427882;2.266044;-0.4012394;2.151202;
637951195440146400;964.1439;27;3;4;0.1;1.4;1563;2.55918106206014;-0.2394138;0.8422151;-0.2481641;0.8846923;0;2.2;-0.02510558;2.159486;
637951195455151257;965.6432;27;3;4;0.1;1.4;1499;2.66844563042028;0.4499513;2.036231;0.4482204;2.018029;-0.2394138;0.8422151;-0.2481641;0.8846923;
637951195473137059;967.4423;27;3;4;0.1;1.4;1799;2.22345747637576;-0.6062176;1.15;-0.5787959;1.183663;0.4499513;2.036231;0.4482204;2.018029;
637951195493243556;969.4523;27;3;4;0.1;1.4;2010;1.99004975124378;0.6893654;1.621554;0.6652574;1.591946;-0.6062176;1.15;-0.5787959;1.183663;
637951195513230011;971.4515;27;3;4;0.1;1.4;1999;2.00100050025012;-0.6893655;1.621553;-0.6873655;1.632195;0.6893654;1.621554;0.6652574;1.591946;
637951195525233889;972.6511;27;3;4;0.1;1.4;1200;3.33333333333333;0.6062179;1.15;0.6138878;1.145686;-0.6893655;1.621553;-0.6873655;1.632195;
637951195536237445;973.7507;27;3;4;0.1;1.4;1100;3.63636363636364;-0.4499517;2.036231;-0.4170495;1.999197;0.6062179;1.15;0.6138878;1.145686;
637951195550221967;975.15;27;3;4;0.1;1.4;1399;2.85918513223731;0.2394144;0.8422153;0.21374;0.883049;-0.4499517;2.036231;-0.4170495;1.999197;
637951195570218424;977.1491;27;3;2.5;0.3;1.4;1100;2.27272727272727;-0.2394138;0.8422151;-0.2074634;0.9563957;0;2.2;0.04168214;2.300293;
637951195580211647;978.1483;27;3;2.5;0.3;1.4;999;2.5025025025025;0.4499513;2.036231;0.3790865;1.947363;-0.2394138;0.8422151;-0.2074634;0.9563957;
637951195591205203;979.2479;27;3;2.5;0.3;1.4;1100;2.27272727272727;-0.6062176;1.15;-0.560473;1.199817;0.4499513;2.036231;0.3790865;1.947363;
637951195603479170;980.4828;27;3;2.5;0.3;1.4;1235;2.02429149797571;0.6893654;1.621554;0.5434061;1.589104;-0.6062176;1.15;-0.560473;1.199817;
637951195613197878;981.447;27;3;2.5;0.3;1.4;964;2.59336099585062;-0.6893655;1.621553;-0.5476022;1.636322;0.6893654;1.621554;0.5434061;1.589104;
637951195622199969;982.3468;27;3;2.5;0.3;1.4;900;2.77777777777778;0.6062179;1.15;0.5104005;1.200623;-0.6893655;1.621553;-0.5476022;1.636322;
637951195632193193;983.3461;27;3;2.5;0.3;1.4;999;2.5025025025025;-0.4499517;2.036231;-0.390563;2.075701;0.6062179;1.15;0.5104005;1.200623;
637951195641186100;984.2457;27;3;2.5;0.3;1.4;900;2.77777777777778;0.2394144;0.8422153;0.2289796;0.9678996;-0.4499517;2.036231;-0.390563;2.075701;
637951195687287235;988.8549;27;3;4.5;0.1;2.2;1999;2.25112556278139;-0.3762217;0.4663379;-0.4071877;0.4894942;0;2.6;0.008002402;2.562666;
637951195702279388;990.3539;27;3;4.5;0.1;2.2;1499;3.00200133422282;0.7070663;2.342649;0.6737087;2.323788;-0.3762217;0.4663379;-0.4071877;0.4894942;
637951195722272007;992.3529;27;3;4.5;0.1;2.2;1999;2.25112556278139;-0.9526277;0.9499994;-0.9376254;0.9682878;0.7070663;2.342649;0.6737087;2.323788;
637951195736275451;993.7525;27;3;4.5;0.1;2.2;1400;3.21428571428571;1.083289;1.691013;1.056461;1.711401;-0.9526277;0.9499994;-0.9376254;0.9682878;
637951195760363230;996.1624;27;3;4.5;0.1;2.2;2410;1.86721991701245;-1.083289;1.691012;-1.092635;1.692931;1.083289;1.691013;1.056461;1.711401;
637951195780359698;998.1616;27;3;4.5;0.1;2.2;1999;2.25112556278139;0.9526281;0.9500003;0.920938;0.9734764;-1.083289;1.691012;-1.092635;1.692931;
637951195796354856;999.761;27;3;4.5;0.1;2.2;1599;2.81425891181989;-0.7070671;2.342648;-0.6685705;2.355669;0.9526281;0.9500003;0.920938;0.9734764;
637951195812360030;1001.361;27;3;4.5;0.1;2.2;1600;2.8125;0.3762226;0.4663382;0.3448382;0.504849;-0.7070671;2.342648;-0.6685705;2.355669;
637951197348011402;1154.911;27;4;4;0.1;1.4;3699;1.08137334414707;-0.2394138;0.8422151;-0.2099985;0.8471211;0;2.2;-0.01367075;2.172068;
637951197361005151;1156.21;27;4;4;0.1;1.4;1299;3.07929176289453;0.4499513;2.036231;0.4138549;2.049259;-0.2394138;0.8422151;-0.2099985;0.8471211;
637951197373999353;1157.51;27;4;4;0.1;1.4;1300;3.07692307692308;-0.6062176;1.15;-0.5985988;1.19703;0.4499513;2.036231;0.4138549;2.049259;
637951197383997908;1158.509;27;4;4;0.1;1.4;1000;4;0.6893654;1.621554;0.6566061;1.629449;-0.6062176;1.15;-0.5985988;1.19703;
637951197397110239;1159.82;27;4;4;0.1;1.4;1311;3.0511060259344;-0.6893655;1.621553;-0.6706244;1.601507;0.6893654;1.621554;0.6566061;1.629449;
637951197417306822;1161.847;27;4;4;0.1;1.4;2027;1.97335964479526;0.6062179;1.15;0.5707881;1.185288;-0.6893655;1.621553;-0.6706244;1.601507;
637951197428090307;1162.918;27;4;4;0.1;1.4;1071;3.73482726423903;-0.4499517;2.036231;-0.465109;2.074141;0.6062179;1.15;0.5707881;1.185288;
637951197439083858;1164.018;27;4;4;0.1;1.4;1100;3.63636363636364;0.2394144;0.8422153;0.2484742;0.8289181;-0.4499517;2.036231;-0.465109;2.074141;
637951197460080643;1166.117;27;4;2;0.6;1.8;1099;1.81983621474067;-0.3078177;0.6542765;-0.2499183;0.8566188;0;2.4;-0.02776976;2.453664;
637951197470073876;1167.116;27;4;2;0.6;1.8;1000;2;0.5785087;2.18944;0.46312;2.194531;-0.3078177;0.6542765;-0.2499183;0.8566188;
637951197479076781;1168.016;27;4;2;0.6;1.8;900;2.22222222222222;-0.7794226;1.05;-0.6654214;1.102162;0.5785087;2.18944;0.46312;2.194531;
637951197488069688;1168.915;27;4;2;0.6;1.8;899;2.22469410456062;0.8863269;1.656283;0.6549833;1.687437;-0.7794226;1.05;-0.6654214;1.102162;
637951197498072921;1169.915;27;4;2;0.6;1.8;1000;2;-0.8863271;1.656283;-0.6896226;1.665232;0.8863269;1.656283;0.6549833;1.687437;
637951197507065824;1170.815;27;4;2;0.6;1.8;900;2.22222222222222;0.779423;1.05;0.6369902;1.10587;-0.8863271;1.656283;-0.6896226;1.665232;
637951197517059050;1171.814;27;4;2;0.6;1.8;1000;2;-0.5785094;2.18944;-0.4466141;2.130641;0.779423;1.05;0.6369902;1.10587;
637951197528052605;1172.914;27;4;2;0.6;1.8;1099;1.81983621474067;0.3078185;0.6542768;0.1613696;0.7800111;-0.5785094;2.18944;-0.4466141;2.130641;
637951197551050033;1175.213;27;4;3.5;0.2;2;1300;2.69230769230769;-0.3420197;0.5603072;-0.3767832;0.6125047;0;2.5;0.02150519;2.554156;
637951197563153943;1176.423;27;4;3.5;0.2;2;1211;2.89017341040462;0.6427875;2.266045;0.5742369;2.247905;-0.3420197;0.5603072;-0.3767832;0.6125047;
637951197575147819;1177.623;27;4;3.5;0.2;2;1199;2.91909924937448;-0.8660251;0.9999995;-0.801298;1.052511;0.6427875;2.266045;0.5742369;2.247905;
637951197587141694;1178.822;27;4;3.5;0.2;2;1200;2.91666666666667;0.9848077;1.673648;0.95362;1.684186;-0.8660251;0.9999995;-0.801298;1.052511;
637951197600135888;1180.121;27;4;3.5;0.2;2;1299;2.69438029253272;-0.9848078;1.673648;-0.9062061;1.70947;0.9848077;1.673648;0.95362;1.684186;
637951197618131702;1181.921;27;4;3.5;0.2;2;1799;1.94552529182879;0.8660256;1;0.8461738;1.085404;-0.9848078;1.673648;-0.9062061;1.70947;
637951197629125259;1183.02;27;4;3.5;0.2;2;1099;3.18471337579618;-0.6427882;2.266044;-0.718241;2.2313;0.8660256;1;0.8461738;1.085404;
637951197641119130;1184.219;27;4;3.5;0.2;2;1200;2.91666666666667;0.3420205;0.5603075;0.3776814;0.5544999;-0.6427882;2.266044;-0.718241;2.2313;
637951197663116237;1186.419;27;4;2.5;0.3;1.4;1100;2.27272727272727;-0.2394138;0.8422151;-0.2112846;0.853873;0;2.2;-0.02110467;2.150163;
637951197672109143;1187.318;27;4;2.5;0.3;1.4;899;2.78086763070078;0.4499513;2.036231;0.4604268;2.067441;-0.2394138;0.8422151;-0.2112846;0.853873;
637951197681122055;1188.219;27;4;2.5;0.3;1.4;901;2.77469478357381;-0.6062176;1.15;-0.6553259;1.223584;0.4499513;2.036231;0.4604268;2.067441;
637951197694221658;1189.528;27;4;2.5;0.3;1.4;1310;1.90839694656489;0.6893654;1.621554;0.615801;1.641266;-0.6062176;1.15;-0.6553259;1.223584;
637951197704214887;1190.528;27;4;2.5;0.3;1.4;999;2.5025025025025;-0.6893655;1.621553;-0.6702653;1.677013;0.6893654;1.621554;0.615801;1.641266;
637951197713207789;1191.427;27;4;2.5;0.3;1.4;899;2.78086763070078;0.6062179;1.15;0.7252828;1.096373;-0.6893655;1.621553;-0.6702653;1.677013;
637951197723201142;1192.426;27;4;2.5;0.3;1.4;999;2.5025025025025;-0.4499517;2.036231;-0.4086789;2.030807;0.6062179;1.15;0.7252828;1.096373;
637951197731199108;1193.226;27;4;2.5;0.3;1.4;800;3.125;0.2394144;0.8422153;0.2734867;0.9147134;-0.4499517;2.036231;-0.4086789;2.030807;
637951197771191004;1197.224;27;4;4.5;0.1;2.2;1399;3.21658327376698;-0.3762217;0.4663379;-0.3535427;0.4934462;0;2.6;-0.01077938;2.586738;
637951197783184882;1198.424;27;4;4.5;0.1;2.2;1200;3.75;0.7070663;2.342649;0.6937091;2.36698;-0.3762217;0.4663379;-0.3535427;0.4934462;
637951197796179171;1199.724;27;4;4.5;0.1;2.2;1299;3.46420323325635;-0.9526277;0.9499994;-0.9316209;0.9884336;0.7070663;2.342649;0.6937091;2.36698;
637951197811173921;1201.223;27;4;4.5;0.1;2.2;1499;3.00200133422282;1.083289;1.691013;1.060735;1.716774;-0.9526277;0.9499994;-0.9316209;0.9884336;
637951197823167796;1202.422;27;4;4.5;0.1;2.2;1199;3.75312760633862;-1.083289;1.691012;-1.056987;1.677512;1.083289;1.691013;1.060735;1.716774;
637951197838272675;1203.933;27;4;4.5;0.1;2.2;1511;2.97816015883521;0.9526281;0.9500003;0.9265963;0.9668651;-1.083289;1.691012;-1.056987;1.677512;
637951197867262039;1206.831;27;4;4.5;0.1;2.2;2899;1.55225939979303;-0.7070671;2.342648;-0.7162867;2.340887;0.9526281;0.9500003;0.9265963;0.9668651;
637951197887258500;1208.83;27;4;4.5;0.1;2.2;1999;2.25112556278139;0.3762226;0.4663382;0.3570821;0.5101326;-0.7070671;2.342648;-0.7162867;2.340887;
637951197908245284;1210.929;27;4;3;0.2;1.4;1000;3;-0.2394138;0.8422151;-0.2236867;0.8978292;0;2.2;-0.02031757;2.262812;
637951197918248515;1211.929;27;4;3;0.2;1.4;1000;3;0.4499513;2.036231;0.405331;2.094228;-0.2394138;0.8422151;-0.2236867;0.8978292;
637951197927241420;1212.828;27;4;3;0.2;1.4;899;3.33704115684093;-0.6062176;1.15;-0.5717726;1.182576;0.4499513;2.036231;0.405331;2.094228;
637951197937234647;1213.828;27;4;3;0.2;1.4;999;3.003003003003;0.6893654;1.621554;0.6591149;1.716503;-0.6062176;1.15;-0.5717726;1.182576;
637951197950228845;1215.127;27;4;3;0.2;1.4;1299;2.3094688221709;-0.6893655;1.621553;-0.6507009;1.611353;0.6893654;1.621554;0.6591149;1.716503;
637951197973216277;1217.426;27;4;3;0.2;1.4;2299;1.30491518051327;0.6062179;1.15;0.601858;1.209545;-0.6893655;1.621553;-0.6507009;1.611353;
637951197984219829;1218.526;27;4;3;0.2;1.4;1100;2.72727272727273;-0.4499517;2.036231;-0.5081156;2.064767;0.6062179;1.15;0.601858;1.209545;
637951197994333095;1219.536;27;4;3;0.2;1.4;1011;2.9673590504451;0.2394144;0.8422153;0.2557988;0.8354708;-0.4499517;2.036231;-0.5081156;2.064767;
637951198011318580;1221.235;27;4;1.5;1.1;2;899;1.66852057842047;-0.3420197;0.5603072;-0.08394748;1.002033;0;2.5;0.04510277;2.299516;
637951198023317421;1222.435;27;4;1.5;1.1;2;1200;1.25;0.6427875;2.266045;0.6360093;2.061077;-0.3420197;0.5603072;-0.08394748;1.002033;
637951198031318705;1223.235;27;4;1.5;1.1;2;800;1.875;-0.8660251;0.9999995;-0.7116268;1.273524;0.6427875;2.266045;0.6360093;2.061077;
637951198039321359;1224.035;27;4;1.5;1.1;2;800;1.875;0.9848077;1.673648;0.6542377;1.618425;-0.8660251;0.9999995;-0.7116268;1.273524;
637951198046309394;1224.734;27;4;1.5;1.1;2;699;2.14592274678112;-0.9848078;1.673648;-0.6714872;1.770272;0.9848077;1.673648;0.6542377;1.618425;
637951198054301977;1225.534;27;4;1.5;1.1;2;800;1.875;0.8660256;1;0.6294751;1.294435;-0.9848078;1.673648;-0.6714872;1.770272;
637951198062304566;1226.333;27;4;1.5;1.1;2;800;1.875;-0.6427882;2.266044;-0.4558799;2.079358;0.8660256;1;0.6294751;1.294435;
637951198070297146;1227.133;27;4;1.5;1.1;2;800;1.875;0.3420205;0.5603075;0.2635892;0.8497431;-0.6427882;2.266044;-0.4558799;2.079358;
637951198760584243;1296.156;27;5;2;0.6;1.8;999;2.002002002002;-0.3078177;0.6542765;-0.3585338;0.8085116;0;2.4;0.01377345;2.14944;
637951198770586913;1297.156;27;5;2;0.6;1.8;1000;2;0.5785087;2.18944;0.5858523;2.087257;-0.3078177;0.6542765;-0.3585338;0.8085116;
637951198779579314;1298.056;27;5;2;0.6;1.8;900;2.22222222222222;-0.7794226;1.05;-0.7313921;1.240237;0.5785087;2.18944;0.5858523;2.087257;
637951198788571718;1298.955;27;5;2;0.6;1.8;900;2.22222222222222;0.8863269;1.656283;0.7168297;1.628399;-0.7794226;1.05;-0.7313921;1.240237;
637951198798574387;1299.955;27;5;2;0.6;1.8;1000;2;-0.8863271;1.656283;-0.8819548;1.667013;0.8863269;1.656283;0.7168297;1.628399;
637951198807566784;1300.854;27;5;2;0.6;1.8;899;2.22469410456062;0.779423;1.05;0.7390044;1.198483;-0.8863271;1.656283;-0.8819548;1.667013;
637951198820565313;1302.154;27;5;2;0.6;1.8;1299;1.53964588144727;-0.5785094;2.18944;-0.5546024;1.976723;0.779423;1.05;0.7390044;1.198483;
637951198830665744;1303.164;27;5;2;0.6;1.8;1010;1.98019801980198;0.3078185;0.6542768;0.2797499;0.8525202;-0.5785094;2.18944;-0.5546024;1.976723;
637951198852651613;1305.363;27;5;4;0.1;1.4;1299;3.07929176289453;-0.2394138;0.8422151;-0.2253721;0.8803641;0;2.2;0.01602275;2.226997;
637951198866965439;1306.802;27;5;4;0.1;1.4;1439;2.77970813064628;0.4499513;2.036231;0.4040341;2.016456;-0.2394138;0.8422151;-0.2253721;0.8803641;
637951198883639971;1308.462;27;5;4;0.1;1.4;1660;2.40963855421687;-0.6062176;1.15;-0.5732203;1.18365;0.4499513;2.036231;0.4040341;2.016456;
637951198893644230;1309.461;27;5;4;0.1;1.4;999;4.004004004004;0.6893654;1.621554;0.654111;1.611777;-0.6062176;1.15;-0.5732203;1.18365;
637951198915631181;1311.66;27;5;4;0.1;1.4;2199;1.81900864029104;-0.6893655;1.621553;-0.6900731;1.625901;0.6893654;1.621554;0.654111;1.611777;
637951198929624914;1313.06;27;5;4;0.1;1.4;1400;2.85714285714286;0.6062179;1.15;0.5813121;1.188972;-0.6893655;1.621553;-0.6900731;1.625901;
637951198947619718;1314.859;27;5;4;0.1;1.4;1799;2.22345747637576;-0.4499517;2.036231;-0.4192514;2.006534;0.6062179;1.15;0.5813121;1.188972;
637951198960613190;1316.158;27;5;4;0.1;1.4;1300;3.07692307692308;0.2394144;0.8422153;0.2376785;0.8511817;-0.4499517;2.036231;-0.4192514;2.006534;
637951199025700569;1322.666;27;5;4.5;0.1;2.2;3299;1.36404971203395;-0.3762217;0.4663379;-0.3901543;0.5140281;0;2.6;0.01247759;2.626453;
637951199064680977;1326.564;27;5;4.5;0.1;2.2;3898;1.15443817342227;0.7070663;2.342649;0.7306862;2.321135;-0.3762217;0.4663379;-0.3901543;0.5140281;
637951199085676580;1328.664;27;5;4.5;0.1;2.2;2099;2.14387803716055;-0.9526277;0.9499994;-0.9884135;0.9430946;0.7070663;2.342649;0.7306862;2.321135;
637951199099890377;1330.093;27;5;4.5;0.1;2.2;1429;3.14905528341498;1.083289;1.691013;1.042144;1.719393;-0.9526277;0.9499994;-0.9884135;0.9430946;
637951199118655383;1331.962;27;5;4.5;0.1;2.2;1870;2.40641711229947;-1.083289;1.691012;-1.055794;1.714108;1.083289;1.691013;1.042144;1.719393;
637951199136760219;1333.772;27;5;4.5;0.1;2.2;1810;2.48618784530387;0.9526281;0.9500003;0.9642023;0.9708561;-1.083289;1.691012;-1.055794;1.714108;
637951199157755825;1335.871;27;5;4.5;0.1;2.2;2099;2.14387803716055;-0.7070671;2.342648;-0.6977647;2.321944;0.9526281;0.9500003;0.9642023;0.9708561;
637951199196729634;1339.77;27;5;4.5;0.1;2.2;3898;1.15443817342227;0.3762226;0.4663382;0.3929037;0.4830558;-0.7070671;2.342648;-0.6977647;2.321944;
637951199213730882;1341.469;27;5;1.5;1.1;2;800;1.875;-0.3420197;0.5603072;-0.2088378;0.8398875;0;2.5;0.06944405;2.099642;
637951199220722748;1342.169;27;5;1.5;1.1;2;700;2.14285714285714;0.6427875;2.266045;0.3896214;1.986817;-0.3420197;0.5603072;-0.2088378;0.8398875;
637951199227724620;1342.868;27;5;1.5;1.1;2;699;2.14592274678112;-0.8660251;0.9999995;-0.9786829;1.17174;0.6427875;2.266045;0.3896214;1.986817;
637951199235716750;1343.668;27;5;1.5;1.1;2;800;1.875;0.9848077;1.673648;0.6500945;1.649664;-0.8660251;0.9999995;-0.9786829;1.17174;
637951199244719269;1344.568;27;5;1.5;1.1;2;900;1.66666666666667;-0.9848078;1.673648;-0.5727239;1.727261;0.9848077;1.673648;0.6500945;1.649664;
637951199253708245;1345.467;27;5;1.5;1.1;2;900;1.66666666666667;0.8660256;1;0.701749;1.288093;-0.9848078;1.673648;-0.5727239;1.727261;
637951199261820408;1346.277;27;5;1.5;1.1;2;811;1.84956843403206;-0.6427882;2.266044;-0.3941897;1.952244;0.8660256;1;0.701749;1.288093;
637951199270812807;1347.177;27;5;1.5;1.1;2;900;1.66666666666667;0.3420205;0.5603075;0.2839215;0.9333204;-0.6427882;2.266044;-0.3941897;1.952244;
637951199304801881;1350.575;27;5;3.5;0.2;2;1199;2.91909924937448;-0.3420197;0.5603072;-0.2976122;0.5437605;0;2.5;-0.001795456;2.420831;
637951199318795622;1351.975;27;5;3.5;0.2;2;1399;2.50178699070765;0.6427875;2.266045;0.6508473;2.291038;-0.3420197;0.5603072;-0.2976122;0.5437605;
637951199330788824;1353.174;27;5;3.5;0.2;2;1199;2.91909924937448;-0.8660251;0.9999995;-0.8579557;1.018255;0.6427875;2.266045;0.6508473;2.291038;
637951199345782825;1354.673;27;5;3.5;0.2;2;1499;2.33488992661775;0.9848077;1.673648;0.9204695;1.673671;-0.8660251;0.9999995;-0.8579557;1.018255;
637951199359776564;1356.073;27;5;3.5;0.2;2;1400;2.5;-0.9848078;1.673648;-0.9658123;1.691203;0.9848077;1.673648;0.9204695;1.673671;
637951199370769495;1357.173;27;5;3.5;0.2;2;1099;3.18471337579618;0.8660256;1;0.8499038;0.9738101;-0.9848078;1.673648;-0.9658123;1.691203;
637951199382772699;1358.372;27;5;3.5;0.2;2;1200;2.91666666666667;-0.6427882;2.266044;-0.5940793;2.311876;0.8660256;1;0.8499038;0.9738101;
637951199417752039;1361.87;27;5;3.5;0.2;2;3498;1.00057175528874;0.3420205;0.5603075;0.3500934;0.6377995;-0.6427882;2.266044;-0.5940793;2.311876;
637951199435856872;1363.68;27;5;2.5;0.3;1.4;899;2.78086763070078;-0.2394138;0.8422151;-0.2377435;0.8550451;0;2.2;-0.004033035;2.168985;
637951199446849810;1364.78;27;5;2.5;0.3;1.4;1100;2.27272727272727;0.4499513;2.036231;0.4114547;2.03682;-0.2394138;0.8422151;-0.2377435;0.8550451;
637951199457842742;1365.879;27;5;2.5;0.3;1.4;1099;2.27479526842584;-0.6062176;1.15;-0.4994943;1.199596;0.4499513;2.036231;0.4114547;2.03682;
637951199467845414;1366.879;27;5;2.5;0.3;1.4;1000;2.5;0.6893654;1.621554;0.6210718;1.673921;-0.6062176;1.15;-0.4994943;1.199596;
637951199477838080;1367.879;27;5;2.5;0.3;1.4;1000;2.5;-0.6893655;1.621553;-0.6475245;1.647024;0.6893654;1.621554;0.6210718;1.673921;
637951199486830480;1368.778;27;5;2.5;0.3;1.4;899;2.78086763070078;0.6062179;1.15;0.7249342;1.150766;-0.6893655;1.621553;-0.6475245;1.647024;
637951199497833420;1369.878;27;5;2.5;0.3;1.4;1100;2.27272727272727;-0.4499517;2.036231;-0.4343379;1.984739;0.6062179;1.15;0.7249342;1.150766;
637951199507826086;1370.877;27;5;2.5;0.3;1.4;999;2.5025025025025;0.2394144;0.8422153;0.2444208;0.9051073;-0.4499517;2.036231;-0.4343379;1.984739;
637951199533818093;1373.476;27;5;3;0.2;1.4;1399;2.14438884917798;-0.2394138;0.8422151;-0.1858504;0.9107558;0;2.2;-0.001756934;2.105019;
637951199547808479;1374.875;27;5;3;0.2;1.4;1399;2.14438884917798;0.4499513;2.036231;0.4385828;1.948133;-0.2394138;0.8422151;-0.1858504;0.9107558;
637951199559801686;1376.075;27;5;3;0.2;1.4;1200;2.5;-0.6062176;1.15;-0.605814;1.239851;0.4499513;2.036231;0.4385828;1.948133;
637951199570904648;1377.185;27;5;3;0.2;1.4;1110;2.7027027027027;0.6893654;1.621554;0.6078102;1.614764;-0.6062176;1.15;-0.605814;1.239851;
637951199582897847;1378.385;27;5;3;0.2;1.4;1200;2.5;-0.6893655;1.621553;-0.6411129;1.640682;0.6893654;1.621554;0.6078102;1.614764;
637951199593899611;1379.485;27;5;3;0.2;1.4;1100;2.72727272727273;0.6062179;1.15;0.5708443;1.206305;-0.6893655;1.621553;-0.6411129;1.640682;
637951199603897334;1380.484;27;5;3;0.2;1.4;999;3.003003003003;-0.4499517;2.036231;-0.4691013;2.025806;0.6062179;1.15;0.5708443;1.206305;
637951199612889834;1381.384;27;5;3;0.2;1.4;900;3.33333333333333;0.2394144;0.8422153;0.2433187;0.8805875;-0.4499517;2.036231;-0.4691013;2.025806;
637951200309163433;1451.007;27;6;3.5;0.2;2;1400;2.5;-0.3420197;0.5603072;-0.3293935;0.6393435;0;2.5;-0.0565222;2.496272;
637951200324144037;1452.506;27;6;3.5;0.2;2;1499;2.33488992661775;0.6427875;2.266045;0.5941097;2.25759;-0.3420197;0.5603072;-0.3293935;0.6393435;
637951200339148039;1454.006;27;6;3.5;0.2;2;1500;2.33333333333333;-0.8660251;0.9999995;-0.8660638;1.00354;0.6427875;2.266045;0.5941097;2.25759;
637951200354132042;1455.505;27;6;3.5;0.2;2;1499;2.33488992661775;0.9848077;1.673648;0.9868425;1.63279;-0.8660251;0.9999995;-0.8660638;1.00354;
637951200370126310;1457.104;27;6;3.5;0.2;2;1599;2.18886804252658;-0.9848078;1.673648;-0.9326757;1.647824;0.9848077;1.673648;0.9868425;1.63279;
637951200379128713;1458.004;27;6;3.5;0.2;2;900;3.88888888888889;0.8660256;1;0.8803383;1.098379;-0.9848078;1.673648;-0.9326757;1.647824;
637951200390231680;1459.114;27;6;3.5;0.2;2;1110;3.15315315315315;-0.6427882;2.266044;-0.6180475;2.240579;0.8660256;1;0.8803383;1.098379;
637951200403225147;1460.413;27;6;3.5;0.2;2;1299;2.69438029253272;0.3420205;0.5603075;0.3030174;0.592659;-0.6427882;2.266044;-0.6180475;2.240579;
637951200433213159;1463.412;27;6;4;0.1;1.4;1162;3.44234079173838;-0.2394138;0.8422151;-0.2301997;0.8786619;0;2.2;0.04377603;2.18382;
637951200456199291;1465.711;27;6;4;0.1;1.4;2299;1.73988690735102;0.4499513;2.036231;0.4230538;2.00864;-0.2394138;0.8422151;-0.2301997;0.8786619;
637951200477194895;1467.81;27;6;4;0.1;1.4;2099;1.90566936636494;-0.6062176;1.15;-0.5883462;1.172076;0.4499513;2.036231;0.4230538;2.00864;
637951200489188097;1469.01;27;6;4;0.1;1.4;1200;3.33333333333333;0.6893654;1.621554;0.6673841;1.633698;-0.6062176;1.15;-0.5883462;1.172076;
637951200511183973;1471.208;27;6;4;0.1;1.4;2199;1.81900864029104;-0.6893655;1.621553;-0.6462408;1.606986;0.6893654;1.621554;0.6673841;1.633698;
637951200524177443;1472.508;27;6;4;0.1;1.4;1300;3.07692307692308;0.6062179;1.15;0.5872511;1.180385;-0.6893655;1.621553;-0.6462408;1.606986;
637951200535610494;1473.659;27;6;4;0.1;1.4;1151;3.47523892267593;-0.4499517;2.036231;-0.4075045;2.062506;0.6062179;1.15;0.5872511;1.180385;
637951200548273874;1474.918;27;6;4;0.1;1.4;1259;3.17712470214456;0.2394144;0.8422153;0.2418967;0.8844825;-0.4499517;2.036231;-0.4075045;2.062506;
637951200564268143;1476.517;27;6;1.5;1.1;2;700;2.14285714285714;-0.3420197;0.5603072;-0.1817734;0.994372;0;2.5;-0.007432058;2.372487;
637951200571270016;1477.217;27;6;1.5;1.1;2;700;2.14285714285714;0.6427875;2.266045;0.4728189;1.979084;-0.3420197;0.5603072;-0.1817734;0.994372;
637951200577261611;1477.817;27;6;1.5;1.1;2;600;2.5;-0.8660251;0.9999995;-0.8133641;1.350329;0.6427875;2.266045;0.4728189;1.979084;
637951200584263484;1478.516;27;6;1.5;1.1;2;699;2.14592274678112;0.9848077;1.673648;0.9547546;1.697024;-0.8660251;0.9999995;-0.8133641;1.350329;
637951200593255883;1479.416;27;6;1.5;1.1;2;900;1.66666666666667;-0.9848078;1.673648;-0.5363101;1.536044;0.9848077;1.673648;0.9547546;1.697024;
637951200600257755;1480.116;27;6;1.5;1.1;2;700;2.14285714285714;0.8660256;1;0.6232686;1.299611;-0.9848078;1.673648;-0.5363101;1.536044;
637951200607254663;1480.815;27;6;1.5;1.1;2;699;2.14592274678112;-0.6427882;2.266044;-0.5125729;1.997991;0.8660256;1;0.6232686;1.299611;
637951200614243060;1481.515;27;6;1.5;1.1;2;700;2.14285714285714;0.3420205;0.5603075;0.3723282;1.018398;-0.6427882;2.266044;-0.5125729;1.997991;
637951200631245429;1483.214;27;6;2.5;0.3;1.4;900;2.77777777777778;-0.2394138;0.8422151;-0.30088;0.9589516;0;2.2;0.04648522;2.057812;
637951200641238098;1484.214;27;6;2.5;0.3;1.4;999;2.5025025025025;0.4499513;2.036231;0.3472955;1.97449;-0.2394138;0.8422151;-0.30088;0.9589516;
637951200649240234;1485.013;27;6;2.5;0.3;1.4;800;3.125;-0.6062176;1.15;-0.5266162;1.232796;0.4499513;2.036231;0.3472955;1.97449;
637951200658232632;1485.913;27;6;2.5;0.3;1.4;900;2.77777777777778;0.6893654;1.621554;0.6842692;1.645138;-0.6062176;1.15;-0.5266162;1.232796;
637951200667224428;1486.812;27;6;2.5;0.3;1.4;899;2.78086763070078;-0.6893655;1.621553;-0.6738471;1.605679;0.6893654;1.621554;0.6842692;1.645138;
637951200675216559;1487.612;27;6;2.5;0.3;1.4;800;3.125;0.6062179;1.15;0.6756241;1.240428;-0.6893655;1.621553;-0.6738471;1.605679;
637951200684332085;1488.523;27;6;2.5;0.3;1.4;911;2.74423710208562;-0.4499517;2.036231;-0.4138412;1.976845;0.6062179;1.15;0.6756241;1.240428;
637951200692322825;1489.322;27;6;2.5;0.3;1.4;800;3.125;0.2394144;0.8422153;0.3081239;0.9014201;-0.4499517;2.036231;-0.4138412;1.976845;
637951200707322848;1490.822;27;6;2;0.6;1.8;800;2.5;-0.3078177;0.6542765;-0.1574774;0.7710515;0;2.4;0.02191679;2.194939;
637951200714312570;1491.521;27;6;2;0.6;1.8;699;2.86123032904149;0.5785087;2.18944;0.4713175;2.220963;-0.3078177;0.6542765;-0.1574774;0.7710515;
637951200722312680;1492.321;27;6;2;0.6;1.8;800;2.5;-0.7794226;1.05;-0.4999055;1.152822;0.5785087;2.18944;0.4713175;2.220963;
637951200730313112;1493.121;27;6;2;0.6;1.8;800;2.5;0.8863269;1.656283;0.824146;1.577312;-0.7794226;1.05;-0.4999055;1.152822;
637951200738313591;1493.92;27;6;2;0.6;1.8;800;2.5;-0.8863271;1.656283;-0.8536781;1.667465;0.8863269;1.656283;0.824146;1.577312;
637951200747303881;1494.82;27;6;2;0.6;1.8;900;2.22222222222222;0.779423;1.05;0.7494208;1.277871;-0.8863271;1.656283;-0.8536781;1.667465;
637951200762302484;1496.319;27;6;2;0.6;1.8;1499;1.33422281521014;-0.5785094;2.18944;-0.3679705;2.013408;0.779423;1.05;0.7494208;1.277871;
637951200770404436;1497.13;27;6;2;0.6;1.8;811;2.46609124537608;0.3078185;0.6542768;0.3166136;0.9531745;-0.5785094;2.18944;-0.3679705;2.013408;
637951200790405078;1499.129;27;6;3;0.2;1.4;1000;3;-0.2394138;0.8422151;-0.2176668;0.9034286;0;2.2;0.01833968;2.149741;
637951200800395421;1500.129;27;6;3;0.2;1.4;1000;3;0.4499513;2.036231;0.3854681;2.018011;-0.2394138;0.8422151;-0.2176668;0.9034286;
637951200813387368;1501.428;27;6;3;0.2;1.4;1299;2.3094688221709;-0.6062176;1.15;-0.601586;1.223578;0.4499513;2.036231;0.3854681;2.018011;
637951200822379841;1502.328;27;6;3;0.2;1.4;900;3.33333333333333;0.6893654;1.621554;0.6942032;1.691074;-0.6062176;1.15;-0.601586;1.223578;
637951200832382511;1503.327;27;6;3;0.2;1.4;1000;3;-0.6893655;1.621553;-0.6276511;1.606869;0.6893654;1.621554;0.6942032;1.691074;
637951200845375981;1504.626;27;6;3;0.2;1.4;1299;2.3094688221709;0.6062179;1.15;0.5313695;1.21467;-0.6893655;1.621553;-0.6276511;1.606869;
637951200855368651;1505.626;27;6;3;0.2;1.4;1000;3;-0.4499517;2.036231;-0.3672849;2.032004;0.6062179;1.15;0.5313695;1.21467;
637951200866361583;1506.725;27;6;3;0.2;1.4;1099;2.72975432211101;0.2394144;0.8422153;0.2713178;0.9200423;-0.4499517;2.036231;-0.3672849;2.032004;
637951200893358792;1509.424;27;6;4.5;0.1;2.2;1300;3.46153846153846;-0.3762217;0.4663379;-0.3428258;0.5026944;0;2.6;0.008067732;2.581504;
637951200911453621;1511.234;27;6;4.5;0.1;2.2;1810;2.48618784530387;0.7070663;2.342649;0.6718257;2.327318;-0.3762217;0.4663379;-0.3428258;0.5026944;
637951200927447894;1512.833;27;6;4.5;0.1;2.2;1599;2.81425891181989;-0.9526277;0.9499994;-0.9403185;0.9633343;0.7070663;2.342649;0.6718257;2.327318;
637951200944442429;1514.533;27;6;4.5;0.1;2.2;1699;2.64861683343143;1.083289;1.691013;1.043767;1.719478;-0.9526277;0.9499994;-0.9403185;0.9633343;
637951200960436699;1516.132;27;6;4.5;0.1;2.2;1600;2.8125;-1.083289;1.691012;-1.069676;1.699061;1.083289;1.691013;1.043767;1.719478;
637951200976430973;1517.731;27;6;4.5;0.1;2.2;1599;2.81425891181989;0.9526281;0.9500003;0.9168639;0.9768496;-1.083289;1.691012;-1.069676;1.699061;
637951201000417374;1520.13;27;6;4.5;0.1;2.2;2399;1.87578157565652;-0.7070671;2.342648;-0.6707071;2.321386;0.9526281;0.9500003;0.9168639;0.9768496;
637951201024403778;1522.529;27;6;4.5;0.1;2.2;2399;1.87578157565652;0.3762226;0.4663382;0.3601393;0.51006;-0.7070671;2.342648;-0.6707071;2.321386;
637951201577735178;1577.859;27;7;1.5;1.1;2;800;1.875;-0.3420197;0.5603072;-0.2905849;0.9831145;0;2.5;0.06818936;2.162288;
637951201583729329;1578.459;27;7;1.5;1.1;2;599;2.50417362270451;0.6427875;2.266045;0.5378444;2.025933;-0.3420197;0.5603072;-0.2905849;0.9831145;
637951201590730612;1579.159;27;7;1.5;1.1;2;700;2.14285714285714;-0.8660251;0.9999995;-0.8547286;1.333607;0.6427875;2.266045;0.5378444;2.025933;
637951201598722859;1579.958;27;7;1.5;1.1;2;800;1.875;0.9848077;1.673648;0.7849955;1.63211;-0.8660251;0.9999995;-0.8547286;1.333607;
637951201606730052;1580.759;27;7;1.5;1.1;2;800;1.875;-0.9848078;1.673648;-0.640987;1.70077;0.9848077;1.673648;0.7849955;1.63211;
637951201614716236;1581.558;27;7;1.5;1.1;2;799;1.87734668335419;0.8660256;1;0.8516147;1.372196;-0.9848078;1.673648;-0.640987;1.70077;
637951201623708641;1582.457;27;7;1.5;1.1;2;899;1.66852057842047;-0.6427882;2.266044;-0.4285715;2.136431;0.8660256;1;0.8516147;1.372196;
637951201633711320;1583.457;27;7;1.5;1.1;2;1000;1.5;0.3420205;0.5603075;0.4751408;1.076438;-0.6427882;2.266044;-0.4285715;2.136431;
637951201657807742;1585.867;27;7;4.5;0.1;2.2;1211;3.7159372419488;-0.3762217;0.4663379;-0.345234;0.453673;0;2.6;-0.003568649;2.551023;
637951201673802013;1587.466;27;7;4.5;0.1;2.2;1599;2.81425891181989;0.7070663;2.342649;0.6893858;2.336634;-0.3762217;0.4663379;-0.345234;0.453673;
637951201690016342;1589.094;27;7;4.5;0.1;2.2;1628;2.76412776412776;-0.9526277;0.9499994;-0.9037762;0.9555805;0.7070663;2.342649;0.6893858;2.336634;
637951201712792425;1591.364;27;7;4.5;0.1;2.2;2270;1.98237885462555;1.083289;1.691013;1.066464;1.705457;-0.9526277;0.9499994;-0.9037762;0.9555805;
637951201765766564;1596.661;27;7;4.5;0.1;2.2;5297;0.84953747404191;-1.083289;1.691012;-1.054706;1.67283;1.083289;1.691013;1.066464;1.705457;
637951201781760838;1598.261;27;7;4.5;0.1;2.2;1600;2.8125;0.9526281;0.9500003;0.926591;0.976999;-1.083289;1.691012;-1.054706;1.67283;
637951201801746170;1600.26;27;7;4.5;0.1;2.2;1999;2.25112556278139;-0.7070671;2.342648;-0.6864809;2.323698;0.9526281;0.9500003;0.926591;0.976999;
637951201915807314;1611.666;27;7;4.5;0.1;2.2;11406;0.394529195160442;0.3762226;0.4663382;0.3750315;0.4979268;-0.7070671;2.342648;-0.6864809;2.323698;
637951201950796657;1615.164;27;7;2.5;0.3;1.4;1099;2.27479526842584;-0.2394138;0.8422151;-0.1825785;0.9644695;0;2.2;0.02932621;2.261639;
637951201960799326;1616.164;27;7;2.5;0.3;1.4;1000;2.5;0.4499513;2.036231;0.3491897;2.000093;-0.2394138;0.8422151;-0.1825785;0.9644695;
637951201970905172;1617.174;27;7;2.5;0.3;1.4;1010;2.47524752475248;-0.6062176;1.15;-0.5759863;1.157157;0.4499513;2.036231;0.3491897;2.000093;
637951201982901414;1618.374;27;7;2.5;0.3;1.4;1200;2.08333333333333;0.6893654;1.621554;0.6488125;1.670194;-0.6062176;1.15;-0.5759863;1.157157;
637951201995884880;1619.673;27;7;2.5;0.3;1.4;1299;1.92455735180908;-0.6893655;1.621553;-0.6216137;1.607012;0.6893654;1.621554;0.6488125;1.670194;
637951202006887819;1620.773;27;7;2.5;0.3;1.4;1100;2.27272727272727;0.6062179;1.15;0.5319639;1.222577;-0.6893655;1.621553;-0.6216137;1.607012;
637951202018881022;1621.972;27;7;2.5;0.3;1.4;1199;2.08507089241034;-0.4499517;2.036231;-0.3626322;1.990477;0.6062179;1.15;0.5319639;1.222577;
637951202028883688;1622.972;27;7;2.5;0.3;1.4;1000;2.5;0.2394144;0.8422153;0.2463223;0.925107;-0.4499517;2.036231;-0.3626322;1.990477;
637951202047868759;1624.87;27;7;3;0.2;1.4;899;3.33704115684093;-0.2394138;0.8422151;-0.2425978;0.9240192;0;2.2;-0.0329132;2.194919;
637951202060862232;1626.17;27;7;3;0.2;1.4;1300;2.30769230769231;0.4499513;2.036231;0.4119715;2.03134;-0.2394138;0.8422151;-0.2425978;0.9240192;
637951202073855699;1627.469;27;7;3;0.2;1.4;1299;2.3094688221709;-0.6062176;1.15;-0.528314;1.198241;0.4499513;2.036231;0.4119715;2.03134;
637951202084848635;1628.569;27;7;3;0.2;1.4;1100;2.72727272727273;0.6893654;1.621554;0.6529505;1.632469;-0.6062176;1.15;-0.528314;1.198241;
637951202096851839;1629.768;27;7;3;0.2;1.4;1199;2.50208507089241;-0.6893655;1.621553;-0.6365864;1.629542;0.6893654;1.621554;0.6529505;1.632469;
637951202111215677;1631.212;27;7;3;0.2;1.4;1444;2.07756232686981;0.6062179;1.15;0.6973476;1.153447;-0.6893655;1.621553;-0.6365864;1.629542;
637951202125949611;1632.678;27;7;3;0.2;1.4;1466;2.04638472032742;-0.4499517;2.036231;-0.4247567;1.981647;0.6062179;1.15;0.6973476;1.153447;
637951202137942809;1633.878;27;7;3;0.2;1.4;1199;2.50208507089241;0.2394144;0.8422153;0.2306646;0.8908834;-0.4499517;2.036231;-0.4247567;1.981647;
637951202161929212;1636.277;27;7;4;0.1;1.4;1100;3.63636363636364;-0.2394138;0.8422151;-0.2125232;0.8726436;0;2.2;-0.02694937;2.20253;
637951202189916689;1639.075;27;7;4;0.1;1.4;2798;1.42959256611866;0.4499513;2.036231;0.4264983;2.033191;-0.2394138;0.8422151;-0.2125232;0.8726436;
637951202200919625;1640.175;27;7;4;0.1;1.4;1100;3.63636363636364;-0.6062176;1.15;-0.5852727;1.170583;0.4499513;2.036231;0.4264983;2.033191;
637951202214913362;1641.574;27;7;4;0.1;1.4;1399;2.85918513223731;0.6893654;1.621554;0.654851;1.633745;-0.6062176;1.15;-0.5852727;1.170583;
637951202229897360;1643.073;27;7;4;0.1;1.4;1499;2.66844563042028;-0.6893655;1.621553;-0.6422804;1.636276;0.6893654;1.621554;0.654851;1.633745;
637951202250892966;1645.172;27;7;4;0.1;1.4;2099;1.90566936636494;0.6062179;1.15;0.5929452;1.184724;-0.6893655;1.621553;-0.6422804;1.636276;
637951202267887504;1646.872;27;7;4;0.1;1.4;1699;2.35432607416127;-0.4499517;2.036231;-0.4339643;2.024184;0.6062179;1.15;0.5929452;1.184724;
637951202285878143;1648.671;27;7;4;0.1;1.4;1799;2.22345747637576;0.2394144;0.8422153;0.2500286;0.8646845;-0.4499517;2.036231;-0.4339643;2.024184;
637951202308982651;1650.981;27;7;3.5;0.2;2;1099;3.18471337579618;-0.3420197;0.5603072;-0.2932585;0.5696788;0;2.5;-0.03929685;2.426072;
637951202321976116;1652.28;27;7;3.5;0.2;2;1300;2.69230769230769;0.6427875;2.266045;0.5921804;2.239983;-0.3420197;0.5603072;-0.2932585;0.5696788;
637951202335969859;1653.679;27;7;3.5;0.2;2;1399;2.50178699070765;-0.8660251;0.9999995;-0.8495699;1.036443;0.6427875;2.266045;0.5921804;2.239983;
637951202348963329;1654.979;27;7;3.5;0.2;2;1300;2.69230769230769;0.9848077;1.673648;0.8891504;1.682982;-0.8660251;0.9999995;-0.8495699;1.036443;
637951202358955996;1655.978;27;7;3.5;0.2;2;999;3.5035035035035;-0.9848078;1.673648;-0.9758295;1.667587;0.9848077;1.673648;0.8891504;1.682982;
637951202369958933;1657.078;27;7;3.5;0.2;2;1099;3.18471337579618;0.8660256;1;0.9526222;1.021968;-0.9848078;1.673648;-0.9758295;1.667587;
637951202380951866;1658.177;27;7;3.5;0.2;2;1099;3.18471337579618;-0.6427882;2.266044;-0.5862821;2.30622;0.8660256;1;0.9526222;1.021968;
637951202390944534;1659.177;27;7;3.5;0.2;2;999;3.5035035035035;0.3420205;0.5603075;0.3484739;0.5883589;-0.6427882;2.266044;-0.5862821;2.30622;
637951202407939077;1660.876;27;7;2;0.6;1.8;799;2.50312891113892;-0.3078177;0.6542765;-0.2330502;0.9049367;0;2.4;0.0110941;2.320288;
637951202415931207;1661.676;27;7;2;0.6;1.8;800;2.5;0.5785087;2.18944;0.5291575;1.996986;-0.3078177;0.6542765;-0.2330502;0.9049367;
637951202423933341;1662.475;27;7;2;0.6;1.8;800;2.5;-0.7794226;1.05;-0.744315;1.139408;0.5785087;2.18944;0.5291575;1.996986;
637951202431035237;1663.186;27;7;2;0.6;1.8;711;2.81293952180028;0.8863269;1.656283;0.9250314;1.627423;-0.7794226;1.05;-0.744315;1.139408;
637951202439037374;1663.986;27;7;2;0.6;1.8;800;2.5;-0.8863271;1.656283;-0.8125781;1.564889;0.8863269;1.656283;0.9250314;1.627423;
637951202448109797;1664.885;27;7;2;0.6;1.8;900;2.22222222222222;0.779423;1.05;0.6896281;1.139089;-0.8863271;1.656283;-0.8125781;1.564889;
637951202457032179;1665.785;27;7;2;0.6;1.8;900;2.22222222222222;-0.5785094;2.18944;-0.4464245;2.114834;0.779423;1.05;0.6896281;1.139089;
637951202467024841;1666.784;27;7;2;0.6;1.8;999;2.002002002002;0.3078185;0.6542768;0.3395353;0.9458374;-0.5785094;2.18944;-0.4464245;2.114834;
