637951241304921931;353.8357;28;0;1.5;1.1;2;1200;1.25;-0.3420197;0.5603072;-0.2868987;0.8810188;0;2.5;-0.04268966;2.31188;
637951241315904535;354.9349;28;0;1.5;1.1;2;1099;1.36487716105551;0.6427875;2.266045;0.5445781;2.08154;-0.3420197;0.5603072;-0.2868987;0.8810188;
637951241326910942;356.0348;28;0;1.5;1.1;2;1100;1.36363636363636;-0.8660251;0.9999995;-0.92737;1.050007;0.6427875;2.266045;0.5445781;2.08154;
637951241336893264;357.0338;28;0;1.5;1.1;2;999;1.5015015015015;0.9848077;1.673648;0.7972556;1.73501;-0.8660251;0.9999995;-0.92737;1.050007;
637951241347885818;358.1332;28;0;1.5;1.1;2;1099;1.36487716105551;-0.9848078;1.673648;-0.9765254;1.561025;0.9848077;1.673648;0.7972556;1.73501;
637951241359888609;359.3327;28;0;1.5;1.1;2;1199;1.25104253544621;0.8660256;1;0.832755;1.406328;-0.9848078;1.673648;-0.9765254;1.561025;
637951241374992117;360.8432;28;0;1.5;1.1;2;1510;0.993377483443709;-0.6427882;2.266044;-0.568996;1.935995;0.8660256;1;0.832755;1.406328;
637951241385984679;361.9428;28;0;1.5;1.1;2;1100;1.36363636363636;0.3420205;0.5603075;0.1639374;0.9201561;-0.6427882;2.266044;-0.568996;1.935995;
637951241420972915;365.4412;28;0;4;0.1;1.4;1400;2.85714285714286;-0.2394138;0.8422151;-0.20903;0.8818083;0;2.2;-0.009960965;2.178399;
637951241431969255;366.5411;28;0;4;0.1;1.4;1100;3.63636363636364;0.4499513;2.036231;0.4640629;2.004766;-0.2394138;0.8422151;-0.20903;0.8818083;
637951241446962543;368.0402;28;0;4;0.1;1.4;1499;2.66844563042028;-0.6062176;1.15;-0.604704;1.142277;0.4499513;2.036231;0.4640629;2.004766;
637951241460955798;369.4395;28;0;4;0.1;1.4;1399;2.85918513223731;0.6893654;1.621554;0.6631997;1.603833;-0.6062176;1.15;-0.604704;1.142277;
637951241470948126;370.439;28;0;4;0.1;1.4;1000;4;-0.6893655;1.621553;-0.7242893;1.603863;0.6893654;1.621554;0.6631997;1.603833;
637951241484941375;371.8381;28;0;4;0.1;1.4;1399;2.85918513223731;0.6062179;1.15;0.5696795;1.14558;-0.6893655;1.621553;-0.7242893;1.603863;
637951241519039302;375.2476;28;0;4;0.1;1.4;3409;1.17336462305661;-0.4499517;2.036231;-0.4177946;2.049718;0.6062179;1.15;0.5696795;1.14558;
637951241533032557;376.6472;28;0;4;0.1;1.4;1400;2.85714285714286;0.2394144;0.8422153;0.2160507;0.8398029;-0.4499517;2.036231;-0.4177946;2.049718;
637951241581013716;381.445;28;0;4.5;0.1;2.2;1894;2.37592397043295;-0.3762217;0.4663379;-0.3729433;0.481141;0;2.6;0.0006187763;2.591427;
637951241611000687;384.4437;28;0;4.5;0.1;2.2;2999;1.50050016672224;0.7070663;2.342649;0.6969163;2.305371;-0.3762217;0.4663379;-0.3729433;0.481141;
637951241632075589;386.544;28;0;4.5;0.1;2.2;2100;2.14285714285714;-0.9526277;0.9499994;-0.9595357;0.9564983;0.7070663;2.342649;0.6969163;2.305371;
637951241647029061;388.0471;28;0;4.5;0.1;2.2;1503;2.9940119760479;1.083289;1.691013;1.046333;1.664561;-0.9526277;0.9499994;-0.9595357;0.9564983;
637951241668082787;390.1519;28;0;4.5;0.1;2.2;2105;2.13776722090261;-1.083289;1.691012;-1.061417;1.694208;1.083289;1.691013;1.046333;1.664561;
637951241684076408;391.7511;28;0;4.5;0.1;2.2;1599;2.81425891181989;0.9526281;0.9500003;0.9072305;0.9370164;-1.083289;1.691012;-1.061417;1.694208;
637951241702071716;393.5503;28;0;4.5;0.1;2.2;1799;2.50138966092273;-0.7070671;2.342648;-0.6608244;2.334548;0.9526281;0.9500003;0.9072305;0.9370164;
637951241723106605;395.6547;28;0;4.5;0.1;2.2;2104;2.13878326996198;0.3762226;0.4663382;0.3866598;0.4857227;-0.7070671;2.342648;-0.6608244;2.334548;
637951241761045424;399.4477;28;0;3;0.2;1.4;2599;1.15429011158138;-0.2394138;0.8422151;-0.225654;0.8744689;0;2.2;-0.03729977;2.185042;
637951241774028445;400.7468;28;0;3;0.2;1.4;1299;2.3094688221709;0.4499513;2.036231;0.4169548;2.053751;-0.2394138;0.8422151;-0.225654;0.8744689;
637951241789021928;402.2463;28;0;3;0.2;1.4;1500;2;-0.6062176;1.15;-0.5981361;1.089733;0.4499513;2.036231;0.4169548;2.053751;
637951241803025184;403.646;28;0;3;0.2;1.4;1400;2.14285714285714;0.6893654;1.621554;0.6164952;1.591278;-0.6062176;1.15;-0.5981361;1.089733;
637951241817128463;405.0563;28;0;3;0.2;1.4;1410;2.12765957446809;-0.6893655;1.621553;-0.6446187;1.630528;0.6893654;1.621554;0.6164952;1.591278;
637951241832111949;406.5553;28;0;3;0.2;1.4;1499;2.00133422281521;0.6062179;1.15;0.5575954;1.123845;-0.6893655;1.621553;-0.6446187;1.630528;
637951241853106828;408.6543;28;0;3;0.2;1.4;2099;1.4292520247737;-0.4499517;2.036231;-0.4223584;2.02117;0.6062179;1.15;0.5575954;1.123845;
637951241867160096;410.0591;28;0;3;0.2;1.4;1405;2.13523131672598;0.2394144;0.8422153;0.2456292;0.933074;-0.4499517;2.036231;-0.4223584;2.02117;
637951241913130785;414.6569;28;0;3.5;0.2;2;3104;1.12757731958763;-0.3420197;0.5603072;-0.3537542;0.6148741;0;2.5;0.0419444;2.449757;
637951241928304311;416.1811;28;0;3.5;0.2;2;1524;2.29658792650919;0.6427875;2.266045;0.5631501;2.209294;-0.3420197;0.5603072;-0.3537542;0.6148741;
637951241946068443;417.9503;28;0;3.5;0.2;2;1769;1.97851893725269;-0.8660251;0.9999995;-0.7880089;1.044462;0.6427875;2.266045;0.5631501;2.209294;
637951241963412477;419.6917;28;0;3.5;0.2;2;1741;2.01033888569788;0.9848077;1.673648;0.8851851;1.674953;-0.8660251;0.9999995;-0.7880089;1.044462;
637951241976160521;420.9599;28;0;3.5;0.2;2;1268;2.7602523659306;-0.9848078;1.673648;-0.9021354;1.674087;0.9848077;1.673648;0.8851851;1.674953;
637951241991151619;422.4589;28;0;3.5;0.2;2;1499;2.33488992661775;0.8660256;1;0.8046549;1.016543;-0.9848078;1.673648;-0.9021354;1.674087;
637951242005204888;423.8634;28;0;3.5;0.2;2;1404;2.49287749287749;-0.6427882;2.266044;-0.578158;2.268563;0.8660256;1;0.8046549;1.016543;
637951242026199768;425.9629;28;0;3.5;0.2;2;2099;1.66746069556932;0.3420205;0.5603075;0.324287;0.6109068;-0.6427882;2.266044;-0.578158;2.268563;
637951242048130945;428.1567;28;0;2.5;0.3;1.4;1099;2.27479526842584;-0.2394138;0.8422151;-0.3018835;0.7737379;0;2.2;-0.02553819;2.150795;
637951242062124201;429.5558;28;0;2.5;0.3;1.4;1399;1.78699070764832;0.4499513;2.036231;0.3798611;2.027056;-0.2394138;0.8422151;-0.3018835;0.7737379;
637951242078117917;431.1552;28;0;2.5;0.3;1.4;1599;1.56347717323327;-0.6062176;1.15;-0.5669382;1.17278;0.4499513;2.036231;0.3798611;2.027056;
637951242089230502;432.2658;28;0;2.5;0.3;1.4;1111;2.25022502250225;0.6893654;1.621554;0.6461551;1.628924;-0.6062176;1.15;-0.5669382;1.17278;
637951242099102797;433.2541;28;0;2.5;0.3;1.4;988;2.53036437246964;-0.6893655;1.621553;-0.732726;1.577873;0.6893654;1.621554;0.6461551;1.628924;
637951242109265164;434.2699;28;0;2.5;0.3;1.4;1016;2.46062992125984;0.6062179;1.15;0.6111321;1.194827;-0.6893655;1.621553;-0.732726;1.577873;
637951242118207233;435.1643;28;0;2.5;0.3;1.4;894;2.79642058165548;-0.4499517;2.036231;-0.4956051;1.974449;0.6062179;1.15;0.6111321;1.194827;
637951242133200722;436.6638;28;0;2.5;0.3;1.4;1499;1.66777851901268;0.2394144;0.8422153;0.2047939;0.897433;-0.4499517;2.036231;-0.4956051;1.974449;
637951242159186769;439.2624;28;0;2;0.6;1.8;1505;1.32890365448505;-0.3078177;0.6542765;-0.2963332;0.7677057;0;2.4;-0.01103327;2.271539;
637951242171239573;440.467;28;0;2;0.6;1.8;1205;1.6597510373444;0.5785087;2.18944;0.4601142;2.12963;-0.3078177;0.6542765;-0.2963332;0.7677057;
637951242183182350;441.6611;28;0;2;0.6;1.8;1194;1.6750418760469;-0.7794226;1.05;-0.6832432;0.8825331;0.5785087;2.18944;0.4601142;2.12963;
637951242193184675;442.6613;28;0;2;0.6;1.8;1000;2;0.8863269;1.656283;0.933444;1.702464;-0.7794226;1.05;-0.6832432;0.8825331;
637951242203166990;443.6603;28;0;2;0.6;1.8;999;2.002002002002;-0.8863271;1.656283;-1.072469;1.643925;0.8863269;1.656283;0.933444;1.702464;
637951242213169317;444.6599;28;0;2;0.6;1.8;1000;2;0.779423;1.05;0.816;0.9545027;-0.8863271;1.656283;-1.072469;1.643925;
637951242225162105;445.8594;28;0;2;0.6;1.8;1200;1.66666666666667;-0.5785094;2.18944;-0.7698985;2.262049;0.779423;1.05;0.816;0.9545027;
637951242238155128;447.1589;28;0;2;0.6;1.8;1300;1.53846153846154;0.3078185;0.6542768;0.1418569;0.902293;-0.5785094;2.18944;-0.7698985;2.262049;
637951243910928667;614.4364;28;1;3.5;0.2;2;1399;2.50178699070765;-0.3420197;0.5603072;-0.3080513;0.633147;0;2.5;0.01901625;2.475205;
637951243921921222;615.5357;28;1;3.5;0.2;2;1099;3.18471337579618;0.6427875;2.266045;0.5621842;2.29477;-0.3420197;0.5603072;-0.3080513;0.633147;
637951243948907495;618.2346;28;1;3.5;0.2;2;2699;1.29677658391997;-0.8660251;0.9999995;-0.8386122;0.9803324;0.6427875;2.266045;0.5621842;2.29477;
637951243960900285;619.4337;28;1;3.5;0.2;2;1199;2.91909924937448;0.9848077;1.673648;0.9193645;1.642198;-0.8660251;0.9999995;-0.8386122;0.9803324;
637951243973893307;620.7333;28;1;3.5;0.2;2;1300;2.69230769230769;-0.9848078;1.673648;-0.9595738;1.687987;0.9848077;1.673648;0.9193645;1.642198;
637951243989887025;622.3323;28;1;3.5;0.2;2;1599;2.18886804252658;0.8660256;1;0.7705975;1.004924;-0.9848078;1.673648;-0.9595738;1.687987;
637951244002880050;623.6321;28;1;3.5;0.2;2;1300;2.69230769230769;-0.6427882;2.266044;-0.5851651;2.239209;0.8660256;1;0.7705975;1.004924;
637951244018873768;625.2311;28;1;3.5;0.2;2;1599;2.18886804252658;0.3420205;0.5603075;0.3699056;0.5862391;-0.6427882;2.266044;-0.5851651;2.239209;
637951244053965448;628.7407;28;1;4;0.1;1.4;2210;1.80995475113122;-0.2394138;0.8422151;-0.2575433;0.8658087;0;2.2;0.03676224;2.183881;
637951244066978475;630.0414;28;1;4;0.1;1.4;1301;3.07455803228286;0.4499513;2.036231;0.4682135;2.006779;-0.2394138;0.8422151;-0.2575433;0.8658087;
637951244078961264;631.2397;28;1;4;0.1;1.4;1198;3.33889816360601;-0.6062176;1.15;-0.6071923;1.148581;0.4499513;2.036231;0.4682135;2.006779;
637951244106946076;634.0382;28;1;4;0.1;1.4;2799;1.4290818149339;0.6893654;1.621554;0.691717;1.602491;-0.6062176;1.15;-0.6071923;1.148581;
637951244120945938;635.438;28;1;4;0.1;1.4;1400;2.85714285714286;-0.6893655;1.621553;-0.6484659;1.596102;0.6893654;1.621554;0.691717;1.602491;
637951244135939425;636.9369;28;1;4;0.1;1.4;1499;2.66844563042028;0.6062179;1.15;0.5832013;1.117664;-0.6893655;1.621553;-0.6484659;1.596102;
637951244149932679;638.3363;28;1;4;0.1;1.4;1399;2.85918513223731;-0.4499517;2.036231;-0.4391065;1.996033;0.6062179;1.15;0.5832013;1.117664;
637951244162925704;639.6357;28;1;4;0.1;1.4;1299;3.07929176289453;0.2394144;0.8422153;0.2124356;0.8633378;-0.4499517;2.036231;-0.4391065;1.996033;
637951244203015019;643.6448;28;1;3;0.2;1.4;1898;1.58061116965227;-0.2394138;0.8422151;-0.2509622;0.8514953;0;2.2;0.003287701;2.119872;
637951244214007579;644.7446;28;1;3;0.2;1.4;1100;2.72727272727273;0.4499513;2.036231;0.4292307;2.038498;-0.2394138;0.8422151;-0.2509622;0.8514953;
637951244233001994;646.6436;28;1;3;0.2;1.4;1899;1.57977883096367;-0.6062176;1.15;-0.5692627;1.160945;0.4499513;2.036231;0.4292307;2.038498;
637951244243004316;647.6432;28;1;3;0.2;1.4;1000;3;0.6893654;1.621554;0.7484002;1.62045;-0.6062176;1.15;-0.5692627;1.160945;
637951244266989889;650.0422;28;1;3;0.2;1.4;2399;1.25052105043768;-0.6893655;1.621553;-0.6447502;1.55388;0.6893654;1.621554;0.7484002;1.62045;
637951244284974079;651.8409;28;1;3;0.2;1.4;1799;1.66759310728182;0.6062179;1.15;0.5348912;1.135901;-0.6893655;1.621553;-0.6447502;1.55388;
637951244299977567;653.3406;28;1;3;0.2;1.4;1500;2;-0.4499517;2.036231;-0.4281178;2.025409;0.6062179;1.15;0.5348912;1.135901;
637951244311970352;654.5398;28;1;3;0.2;1.4;1199;2.50208507089241;0.2394144;0.8422153;0.1805193;0.9217873;-0.4499517;2.036231;-0.4281178;2.025409;
637951244333955463;656.7389;28;1;2.5;0.3;1.4;1099;2.27479526842584;-0.2394138;0.8422151;-0.2052935;0.8265591;0;2.2;-0.02247116;2.279569;
637951244349058977;658.2494;28;1;2.5;0.3;1.4;1510;1.65562913907285;0.4499513;2.036231;0.4078551;2.065842;-0.2394138;0.8422151;-0.2052935;0.8265591;
637951244359071305;659.2499;28;1;2.5;0.3;1.4;1000;2.5;-0.6062176;1.15;-0.5361929;1.189845;0.4499513;2.036231;0.4078551;2.065842;
637951244371044085;660.4481;28;1;2.5;0.3;1.4;1198;2.08681135225376;0.6893654;1.621554;0.6542346;1.630844;-0.6062176;1.15;-0.5361929;1.189845;
637951244386037572;661.9474;28;1;2.5;0.3;1.4;1499;1.66777851901268;-0.6893655;1.621553;-0.6227787;1.60705;0.6893654;1.621554;0.6542346;1.630844;
637951244402031292;663.5467;28;1;2.5;0.3;1.4;1599;1.56347717323327;0.6062179;1.15;0.5366828;1.236285;-0.6893655;1.621553;-0.6227787;1.60705;
637951244415023880;664.8463;28;1;2.5;0.3;1.4;1299;1.92455735180908;-0.4499517;2.036231;-0.3793115;2.03528;0.6062179;1.15;0.5366828;1.236285;
637951244428026903;666.1458;28;1;2.5;0.3;1.4;1299;1.92455735180908;0.2394144;0.8422153;0.1739642;0.8539226;-0.4499517;2.036231;-0.3793115;2.03528;
637951244453006530;668.6443;28;1;1.5;1.1;2;1399;1.07219442458899;-0.3420197;0.5603072;-0.4230851;1.002734;0;2.5;-0.0532707;2.317191;
637951244459006551;669.2441;28;1;1.5;1.1;2;600;2.5;0.6427875;2.266045;0.2792034;1.991096;-0.3420197;0.5603072;-0.4230851;1.002734;
637951244468006184;670.1437;28;1;1.5;1.1;2;900;1.66666666666667;-0.8660251;0.9999995;-0.6302099;1.199348;0.6427875;2.266045;0.2792034;1.991096;
637951244477036951;671.0463;28;1;1.5;1.1;2;903;1.66112956810631;0.9848077;1.673648;0.6921248;1.627624;-0.8660251;0.9999995;-0.6302099;1.199348;
637951244483117518;671.6547;28;1;1.5;1.1;2;608;2.46710526315789;-0.9848078;1.673648;-0.7533678;1.701421;0.9848077;1.673648;0.6921248;1.627624;
637951244493105935;672.6537;28;1;1.5;1.1;2;999;1.5015015015015;0.8660256;1;0.5097862;1.289844;-0.9848078;1.673648;-0.7533678;1.701421;
637951244499102444;673.2538;28;1;1.5;1.1;2;600;2.5;-0.6427882;2.266044;-0.5024202;2.016237;0.8660256;1;0.5097862;1.289844;
637951244508099373;674.153;28;1;1.5;1.1;2;899;1.66852057842047;0.3420205;0.5603075;0.2323405;0.9946506;-0.6427882;2.266044;-0.5024202;2.016237;
637951244546076740;677.9512;28;1;4.5;0.1;2.2;2299;1.9573727707699;-0.3762217;0.4663379;-0.376335;0.4864793;0;2.6;0.03576569;2.599312;
637951244558077312;679.1506;28;1;4.5;0.1;2.2;1199;3.75312760633862;0.7070663;2.342649;0.663246;2.325074;-0.3762217;0.4663379;-0.376335;0.4864793;
637951244586064037;681.9493;28;1;4.5;0.1;2.2;2799;1.60771704180064;-0.9526277;0.9499994;-0.9544678;0.9347277;0.7070663;2.342649;0.663246;2.325074;
637951244616161032;684.9592;28;1;4.5;0.1;2.2;3010;1.49501661129568;1.083289;1.691013;1.071004;1.708098;-0.9526277;0.9499994;-0.9544678;0.9347277;
637951244632064732;686.5496;28;1;4.5;0.1;2.2;1591;2.82840980515399;-1.083289;1.691012;-1.118792;1.708018;1.083289;1.691013;1.071004;1.708098;
637951244677135208;691.0563;28;1;4.5;0.1;2.2;4507;0.998446860439317;0.9526281;0.9500003;0.9461859;0.9421084;-1.083289;1.691012;-1.118792;1.708018;
637951244699120320;693.255;28;1;4.5;0.1;2.2;2199;2.04638472032742;-0.7070671;2.342648;-0.6840918;2.371077;0.9526281;0.9500003;0.9461859;0.9421084;
637951244727436904;696.0939;28;1;4.5;0.1;2.2;2839;1.58506516379007;0.3762226;0.4663382;0.3284085;0.4539053;-0.7070671;2.342648;-0.6840918;2.371077;
637951244744210803;697.7644;28;1;2;0.6;1.8;800;2.5;-0.3078177;0.6542765;-0.2221854;0.9082422;0;2.4;0.02328562;2.278015;
637951244753212895;698.6639;28;1;2;0.6;1.8;899;2.22469410456062;0.5785087;2.18944;0.4160688;2.131064;-0.3078177;0.6542765;-0.2221854;0.9082422;
637951244766205918;699.9632;28;1;2;0.6;1.8;1299;1.53964588144727;-0.7794226;1.05;-0.7845067;1.123394;0.5785087;2.18944;0.4160688;2.131064;
637951244775198010;700.8628;28;1;2;0.6;1.8;900;2.22222222222222;0.8863269;1.656283;0.9946582;1.675744;-0.7794226;1.05;-0.7845067;1.123394;
637951244793192191;702.6619;28;1;2;0.6;1.8;1799;1.11172873818788;-0.8863271;1.656283;-0.7195304;1.533172;0.8863269;1.656283;0.9946582;1.675744;
637951244805184980;703.8612;28;1;2;0.6;1.8;1199;1.66805671392827;0.779423;1.05;0.5891799;1.156009;-0.8863271;1.656283;-0.7195304;1.533172;
637951244828170323;706.1603;28;1;2;0.6;1.8;2299;0.869943453675511;-0.5785094;2.18944;-0.5641494;1.938971;0.779423;1.05;0.5891799;1.156009;
637951244840163113;707.3597;28;1;2;0.6;1.8;1199;1.66805671392827;0.3078185;0.6542768;0.2222251;0.7861692;-0.5785094;2.18944;-0.5641494;1.938971;
637951245613487910;784.6907;28;2;2;0.6;1.8;1000;2;-0.3078177;0.6542765;-0.3419328;0.8651183;0;2.4;-0.06799437;2.240277;
637951245624597747;785.8018;28;2;2;0.6;1.8;1111;1.8001800180018;0.5785087;2.18944;0.4786205;2.093681;-0.3078177;0.6542765;-0.3419328;0.8651183;
637951245633589839;786.7009;28;2;2;0.6;1.8;899;2.22469410456062;-0.7794226;1.05;-0.873071;1.182432;0.5785087;2.18944;0.4786205;2.093681;
637951245643572159;787.7;28;2;2;0.6;1.8;999;2.002002002002;0.8863269;1.656283;0.8982071;1.827408;-0.7794226;1.05;-0.873071;1.182432;
637951245651574017;788.4996;28;2;2;0.6;1.8;800;2.5;-0.8863271;1.656283;-0.8907052;1.71896;0.8863269;1.656283;0.8982071;1.827408;
637951245689558275;792.2979;28;2;2;0.6;1.8;3798;0.526592943654555;0.779423;1.05;0.7462083;1.127769;-0.8863271;1.656283;-0.8907052;1.71896;
637951245700550829;793.3975;28;2;2;0.6;1.8;1100;1.81818181818182;-0.5785094;2.18944;-0.4817027;2.13483;0.779423;1.05;0.7462083;1.127769;
637951245710553156;794.3971;28;2;2;0.6;1.8;1000;2;0.3078185;0.6542768;0.2325262;0.7734863;-0.5785094;2.18944;-0.4817027;2.13483;
637951245727617119;796.0964;28;2;2.5;0.3;1.4;999;2.5025025025025;-0.2394138;0.8422151;-0.265715;0.8399875;0;2.2;-0.003788405;2.166416;
637951245737539432;797.0959;28;2;2.5;0.3;1.4;999;2.5025025025025;0.4499513;2.036231;0.3573637;2.009851;-0.2394138;0.8422151;-0.265715;0.8399875;
637951245748531988;798.1954;28;2;2.5;0.3;1.4;1099;2.27479526842584;-0.6062176;1.15;-0.613372;1.250981;0.4499513;2.036231;0.3573637;2.009851;
637951245779629215;801.3052;28;2;2.5;0.3;1.4;3110;0.803858520900322;0.6893654;1.621554;0.6913057;1.641565;-0.6062176;1.15;-0.613372;1.250981;
637951245792622238;802.6045;28;2;2.5;0.3;1.4;1299;1.92455735180908;-0.6893655;1.621553;-0.576228;1.646968;0.6893654;1.621554;0.6913057;1.641565;
637951245806615492;804.0035;28;2;2.5;0.3;1.4;1399;1.78699070764832;0.6062179;1.15;0.5366602;1.192168;-0.6893655;1.621553;-0.576228;1.646968;
637951245817608050;805.1035;28;2;2.5;0.3;1.4;1100;2.27272727272727;-0.4499517;2.036231;-0.4159165;2.047022;0.6062179;1.15;0.5366602;1.192168;
637951245829610838;806.3027;28;2;2.5;0.3;1.4;1199;2.08507089241034;0.2394144;0.8422153;0.1768124;0.8915392;-0.4499517;2.036231;-0.4159165;2.047022;
637951245855596879;808.9014;28;2;4;0.1;1.4;1399;2.85918513223731;-0.2394138;0.8422151;-0.2398417;0.8070312;0;2.2;-0.01164638;2.159711;
637951245878582224;811.2004;28;2;4;0.1;1.4;2299;1.73988690735102;0.4499513;2.036231;0.4809355;2.03184;-0.2394138;0.8422151;-0.2398417;0.8070312;
637951245890575015;812.3998;28;2;4;0.1;1.4;1199;3.33611342785655;-0.6062176;1.15;-0.5878353;1.162541;0.4499513;2.036231;0.4809355;2.03184;
637951245916681084;815.0096;28;2;4;0.1;1.4;2610;1.53256704980843;0.6893654;1.621554;0.6958904;1.611941;-0.6062176;1.15;-0.5878353;1.162541;
637951245942667120;817.6085;28;2;4;0.1;1.4;2599;1.5390534821085;-0.6893655;1.621553;-0.6699384;1.609304;0.6893654;1.621554;0.6958904;1.611941;
637951245965652467;819.9076;28;2;4;0.1;1.4;2299;1.73988690735102;0.6062179;1.15;0.6025422;1.140851;-0.6893655;1.621553;-0.6699384;1.609304;
637951245982647086;821.607;28;2;4;0.1;1.4;1699;2.35432607416127;-0.4499517;2.036231;-0.4646545;2.063898;0.6062179;1.15;0.6025422;1.140851;
637951246017626498;825.105;28;2;4;0.1;1.4;3498;1.14351057747284;0.2394144;0.8422153;0.2424616;0.8522103;-0.4499517;2.036231;-0.4646545;2.063898;
637951246054615099;828.8033;28;2;4.5;0.1;2.2;2399;1.87578157565652;-0.3762217;0.4663379;-0.3452878;0.5054873;0;2.6;-0.01204718;2.569196;
637951246095704643;832.9124;28;2;4.5;0.1;2.2;4109;1.09515697249939;0.7070663;2.342649;0.674575;2.304645;-0.3762217;0.4663379;-0.3452878;0.5054873;
637951246113678830;834.7095;28;2;4.5;0.1;2.2;1797;2.50417362270451;-0.9526277;0.9499994;-0.9317001;0.9336203;0.7070663;2.342649;0.674575;2.304645;
637951246139684886;837.3104;28;2;4.5;0.1;2.2;2601;1.73010380622837;1.083289;1.691013;1.063046;1.700272;-0.9526277;0.9499994;-0.9317001;0.9336203;
637951246155678595;838.9098;28;2;4.5;0.1;2.2;1599;2.81425891181989;-1.083289;1.691012;-1.050423;1.691948;1.083289;1.691013;1.063046;1.700272;
637951246203039607;843.6534;28;2;4.5;0.1;2.2;4744;0.948566610455312;0.9526281;0.9500003;0.902714;0.9470563;-1.083289;1.691012;-1.050423;1.691948;
637951246222764192;845.6182;28;2;4.5;0.1;2.2;1965;2.29007633587786;-0.7070671;2.342648;-0.6891048;2.316988;0.9526281;0.9500003;0.902714;0.9470563;
637951246247750003;848.1165;28;2;4.5;0.1;2.2;2498;1.80144115292234;0.3762226;0.4663382;0.3721395;0.4325362;-0.7070671;2.342648;-0.6891048;2.316988;
637951246274736276;850.8151;28;2;3.5;0.2;2;1599;2.18886804252658;-0.3420197;0.5603072;-0.3410487;0.6302217;0;2.5;0.03178386;2.48763;
637951246284728601;851.8147;28;2;3.5;0.2;2;1000;3.5;0.6427875;2.266045;0.5730826;2.292372;-0.3420197;0.5603072;-0.3410487;0.6302217;
637951246307718081;854.1139;28;2;3.5;0.2;2;2299;1.52240104393214;-0.8660251;0.9999995;-0.9222158;1.028775;0.6427875;2.266045;0.5730826;2.292372;
637951246319720872;855.3135;28;2;3.5;0.2;2;1200;2.91666666666667;0.9848077;1.673648;0.9581886;1.666599;-0.8660251;0.9999995;-0.9222158;1.028775;
637951246342707458;857.6121;28;2;3.5;0.2;2;2299;1.52240104393214;-0.9848078;1.673648;-0.9335241;1.681163;0.9848077;1.673648;0.9581886;1.666599;
637951246353701633;858.7118;28;2;3.5;0.2;2;1100;3.18181818181818;0.8660256;1;0.8484484;1.052307;-0.9848078;1.673648;-0.9335241;1.681163;
637951246368807727;860.222;28;2;3.5;0.2;2;1510;2.31788079470199;-0.6427882;2.266044;-0.6412715;2.30434;0.8660256;1;0.8484484;1.052307;
637951246379800280;861.3217;28;2;3.5;0.2;2;1100;3.18181818181818;0.3420205;0.5603075;0.2810799;0.5935429;-0.6427882;2.266044;-0.6412715;2.30434;
637951246397794463;863.121;28;2;1.5;1.1;2;1000;1.5;-0.3420197;0.5603072;-0.218162;0.9207101;0;2.5;-0.005765511;2.279513;
637951246404786083;863.8204;28;2;1.5;1.1;2;699;2.14592274678112;0.6427875;2.266045;0.5802244;2.211697;-0.3420197;0.5603072;-0.218162;0.9207101;
637951246415778645;864.9197;28;2;1.5;1.1;2;1099;1.36487716105551;-0.8660251;0.9999995;-0.6729722;1.177676;0.6427875;2.266045;0.5802244;2.211697;
637951246424780738;865.8194;28;2;1.5;1.1;2;900;1.66666666666667;0.9848077;1.673648;0.6670988;1.784017;-0.8660251;0.9999995;-0.6729722;1.177676;
637951246433772834;866.7188;28;2;1.5;1.1;2;899;1.66852057842047;-0.9848078;1.673648;-0.7653007;1.839903;0.9848077;1.673648;0.6670988;1.784017;
637951246443765144;867.7186;28;2;1.5;1.1;2;1000;1.5;0.8660256;1;0.4699312;1.2978;-0.9848078;1.673648;-0.7653007;1.839903;
637951246454767715;868.8179;28;2;1.5;1.1;2;1099;1.36487716105551;-0.6427882;2.266044;-0.4479269;2.092751;0.8660256;1;0.4699312;1.2978;
637951246463759804;869.7177;28;2;1.5;1.1;2;900;1.66666666666667;0.3420205;0.5603075;0.06186008;0.8111134;-0.6427882;2.266044;-0.4479269;2.092751;
637951246493746774;872.7163;28;2;3;0.2;1.4;1399;2.14438884917798;-0.2394138;0.8422151;-0.1647984;0.8679615;0;2.2;-0.02422751;2.196269;
637951246503739093;873.7158;28;2;3;0.2;1.4;1000;3;0.4499513;2.036231;0.3837247;2.085272;-0.2394138;0.8422151;-0.1647984;0.8679615;
637951246517852380;875.1263;28;2;3;0.2;1.4;1411;2.12615166548547;-0.6062176;1.15;-0.5575268;1.224396;0.4499513;2.036231;0.3837247;2.085272;
637951246535836557;876.9252;28;2;3;0.2;1.4;1799;1.66759310728182;0.6893654;1.621554;0.6472235;1.603199;-0.6062176;1.15;-0.5575268;1.224396;
637951246552830510;878.6245;28;2;3;0.2;1.4;1699;1.76574455562095;-0.6893655;1.621553;-0.6333914;1.592191;0.6893654;1.621554;0.6472235;1.603199;
637951246571824925;880.5239;28;2;3;0.2;1.4;1899;1.57977883096367;0.6062179;1.15;0.5504059;1.197881;-0.6893655;1.621553;-0.6333914;1.592191;
637951246584817947;881.8233;28;2;3;0.2;1.4;1299;2.3094688221709;-0.4499517;2.036231;-0.4522591;2.021577;0.6062179;1.15;0.5504059;1.197881;
637951246598811202;883.2227;28;2;3;0.2;1.4;1399;2.14438884917798;0.2394144;0.8422153;0.2523245;0.9055972;-0.4499517;2.036231;-0.4522591;2.021577;
637951247224079726;945.7488;28;3;4;0.1;1.4;1599;2.50156347717323;-0.2394138;0.8422151;-0.2214568;0.8533417;0;2.2;0.002695169;2.211484;
637951247237072746;947.0483;28;3;4;0.1;1.4;1299;3.07929176289453;0.4499513;2.036231;0.4625688;2.021637;-0.2394138;0.8422151;-0.2214568;0.8533417;
637951247257067397;949.0475;28;3;4;0.1;1.4;1999;2.00100050025012;-0.6062176;1.15;-0.5986534;1.180169;0.4499513;2.036231;0.4625688;2.021637;
637951247277062043;951.0468;28;3;4;0.1;1.4;1999;2.00100050025012;0.6893654;1.621554;0.6668081;1.603253;-0.6062176;1.15;-0.5986534;1.180169;
637951247297046690;953.0458;28;3;4;0.1;1.4;1999;2.00100050025012;-0.6893655;1.621553;-0.7187254;1.597482;0.6893654;1.621554;0.6668081;1.603253;
637951247328143919;956.1555;28;3;4;0.1;1.4;3110;1.28617363344051;0.6062179;1.15;0.5999578;1.151655;-0.6893655;1.621553;-0.7187254;1.597482;
637951247343187413;957.6597;28;3;4;0.1;1.4;1504;2.65957446808511;-0.4499517;2.036231;-0.4285153;1.991642;0.6062179;1.15;0.5999578;1.151655;
637951247362181831;959.5591;28;3;4;0.1;1.4;1899;2.10637177461822;0.2394144;0.8422153;0.2181054;0.8600909;-0.4499517;2.036231;-0.4285153;1.991642;
637951247404101578;963.7515;28;3;4.5;0.1;2.2;2663;1.68982350732257;-0.3762217;0.4663379;-0.3727309;0.490658;0;2.6;0.009119934;2.555236;
637951247433418394;966.69;28;3;4.5;0.1;2.2;2939;1.53113303844845;0.7070663;2.342649;0.7125532;2.292952;-0.3762217;0.4663379;-0.3727309;0.490658;
637951247451082832;968.4495;28;3;4.5;0.1;2.2;1759;2.55827174530984;-0.9526277;0.9499994;-0.9434113;0.9270681;0.7070663;2.342649;0.7125532;2.292952;
637951247465084321;969.8489;28;3;4.5;0.1;2.2;1399;3.21658327376698;1.083289;1.691013;1.047947;1.694961;-0.9526277;0.9499994;-0.9434113;0.9270681;
637951247487179462;972.0589;28;3;4.5;0.1;2.2;2210;2.03619909502262;-1.083289;1.691012;-1.073999;1.681796;1.083289;1.691013;1.047947;1.694961;
637951247514093618;974.7498;28;3;4.5;0.1;2.2;2691;1.67224080267559;0.9526281;0.9500003;0.9271015;0.9420463;-1.083289;1.691012;-1.073999;1.681796;
637951247532157819;976.5568;28;3;4.5;0.1;2.2;1807;2.49031543995573;-0.7070671;2.342648;-0.681392;2.334787;0.9526281;0.9500003;0.9271015;0.9420463;
637951247557153633;979.0558;28;3;4.5;0.1;2.2;2499;1.80072028811525;0.3762226;0.4663382;0.3591137;0.5132059;-0.7070671;2.342648;-0.681392;2.334787;
637951247592201782;982.5602;28;3;3.5;0.2;2;1600;2.1875;-0.3420197;0.5603072;-0.3284808;0.6261106;0;2.5;-0.0001801997;2.465761;
637951247605124780;983.8533;28;3;3.5;0.2;2;1293;2.70688321732405;0.6427875;2.266045;0.5728061;2.208992;-0.3420197;0.5603072;-0.3284808;0.6261106;
637951247621118504;985.4528;28;3;3.5;0.2;2;1599;2.18886804252658;-0.8660251;0.9999995;-0.8348984;1.026187;0.6427875;2.266045;0.5728061;2.208992;
637951247634221548;986.7631;28;3;3.5;0.2;2;1310;2.67175572519084;0.9848077;1.673648;0.9191308;1.652768;-0.8660251;0.9999995;-0.8348984;1.026187;
637951247648214803;988.1627;28;3;3.5;0.2;2;1400;2.5;-0.9848078;1.673648;-0.9487268;1.669144;0.9848077;1.673648;0.9191308;1.652768;
637951247664208523;989.7618;28;3;3.5;0.2;2;1599;2.18886804252658;0.8660256;1;0.8431781;1.033169;-0.9848078;1.673648;-0.9487268;1.669144;
637951247676371348;990.9777;28;3;3.5;0.2;2;1216;2.87828947368421;-0.6427882;2.266044;-0.619598;2.192638;0.8660256;1;0.8431781;1.033169;
637951247707308542;994.071;28;3;3.5;0.2;2;3093;1.13158745554478;0.3420205;0.5603075;0.3481913;0.5832553;-0.6427882;2.266044;-0.619598;2.192638;
637951247731284116;996.4696;28;3;2.5;0.3;1.4;1099;2.27479526842584;-0.2394138;0.8422151;-0.2803094;0.8352764;0;2.2;-0.02315742;2.158529;
637951247748338082;998.1743;28;3;2.5;0.3;1.4;1705;1.46627565982405;0.4499513;2.036231;0.449976;1.978478;-0.2394138;0.8422151;-0.2803094;0.8352764;
637951247761281090;999.4683;28;3;2.5;0.3;1.4;1294;1.93199381761978;-0.6062176;1.15;-0.5237144;1.202735;0.4499513;2.036231;0.449976;1.978478;
637951247772323659;1000.573;28;3;2.5;0.3;1.4;1105;2.26244343891403;0.6893654;1.621554;0.7117314;1.581915;-0.6062176;1.15;-0.5237144;1.202735;
637951247785272035;1001.867;28;3;2.5;0.3;1.4;1294;1.93199381761978;-0.6893655;1.621553;-0.6570475;1.656333;0.6893654;1.621554;0.7117314;1.581915;
637951247799422521;1003.283;28;3;2.5;0.3;1.4;1416;1.76553672316384;0.6062179;1.15;0.4899537;1.180647;-0.6893655;1.621553;-0.6570475;1.656333;
637951247820367396;1005.377;28;3;2.5;0.3;1.4;2094;1.19388729703916;-0.4499517;2.036231;-0.3949112;2.029623;0.6062179;1.15;0.4899537;1.180647;
637951247834363284;1006.777;28;3;2.5;0.3;1.4;1400;1.78571428571429;0.2394144;0.8422153;0.2269804;0.8376415;-0.4499517;2.036231;-0.3949112;2.029623;
637951247856347961;1008.975;28;3;3;0.2;1.4;1099;2.72975432211101;-0.2394138;0.8422151;-0.2352395;0.8358691;0;2.2;0.005629022;2.154565;
637951247866339833;1009.975;28;3;3;0.2;1.4;1000;3;0.4499513;2.036231;0.382594;1.990979;-0.2394138;0.8422151;-0.2352395;0.8358691;
637951247879451857;1011.285;28;3;3;0.2;1.4;1311;2.2883295194508;-0.6062176;1.15;-0.5950092;1.215531;0.4499513;2.036231;0.382594;1.990979;
637951247916425263;1014.983;28;3;3;0.2;1.4;3698;0.811249323958897;0.6893654;1.621554;0.5971304;1.645336;-0.6062176;1.15;-0.5950092;1.215531;
637951247935419673;1016.883;28;3;3;0.2;1.4;1899;1.57977883096367;-0.6893655;1.621553;-0.5994334;1.581909;0.6893654;1.621554;0.5971304;1.645336;
637951247955414327;1018.882;28;3;3;0.2;1.4;1999;1.50075037518759;0.6062179;1.15;0.5454491;1.183187;-0.6893655;1.621553;-0.5994334;1.581909;
637951247970397810;1020.381;28;3;3;0.2;1.4;1499;2.00133422281521;-0.4499517;2.036231;-0.4488164;1.954749;0.6062179;1.15;0.5454491;1.183187;
637951247990392463;1022.38;28;3;3;0.2;1.4;1999;1.50075037518759;0.2394144;0.8422153;0.2419161;0.902463;-0.4499517;2.036231;-0.4488164;1.954749;
637951248009386874;1024.279;28;3;1.5;1.1;2;800;1.875;-0.3420197;0.5603072;-0.2828467;0.9660617;0;2.5;0.00694857;2.193518;
637951248019499226;1025.29;28;3;1.5;1.1;2;1011;1.48367952522255;0.6427875;2.266045;0.3969473;2.159378;-0.3420197;0.5603072;-0.2828467;0.9660617;
637951248032492247;1026.589;28;3;1.5;1.1;2;1299;1.15473441108545;-0.8660251;0.9999995;-0.7017852;1.226734;0.6427875;2.266045;0.3969473;2.159378;
637951248044485036;1027.789;28;3;1.5;1.1;2;1200;1.25;0.9848077;1.673648;0.708621;1.650374;-0.8660251;0.9999995;-0.7017852;1.226734;
637951248055477590;1028.888;28;3;1.5;1.1;2;1099;1.36487716105551;-0.9848078;1.673648;-0.8733236;1.607598;0.9848077;1.673648;0.708621;1.650374;
637951248064479684;1029.788;28;3;1.5;1.1;2;900;1.66666666666667;0.8660256;1;0.6969748;1.300239;-0.9848078;1.673648;-0.8733236;1.607598;
637951248073471773;1030.687;28;3;1.5;1.1;2;899;1.66852057842047;-0.6427882;2.266044;-0.612822;2.09522;0.8660256;1;0.6969748;1.300239;
637951248082463864;1031.587;28;3;1.5;1.1;2;899;1.66852057842047;0.3420205;0.5603075;0.1781192;0.8690445;-0.6427882;2.266044;-0.612822;2.09522;
637951248101448277;1033.486;28;3;2;0.6;1.8;999;2.002002002002;-0.3078177;0.6542765;-0.3233096;0.6821607;0;2.4;-0.04001901;2.290856;
637951248110450372;1034.385;28;3;2;0.6;1.8;900;2.22222222222222;0.5785087;2.18944;0.2997375;2.184032;-0.3078177;0.6542765;-0.3233096;0.6821607;
637951248121552952;1035.496;28;3;2;0.6;1.8;1111;1.8001800180018;-0.7794226;1.05;-0.9445623;1.044128;0.5785087;2.18944;0.2997375;2.184032;
637951248131555280;1036.496;28;3;2;0.6;1.8;1000;2;0.8863269;1.656283;0.7288373;1.689325;-0.7794226;1.05;-0.9445623;1.044128;
637951248144548300;1037.795;28;3;2;0.6;1.8;1299;1.53964588144727;-0.8863271;1.656283;-0.8882984;1.660739;0.8863269;1.656283;0.7288373;1.689325;
637951248154540618;1038.794;28;3;2;0.6;1.8;999;2.002002002002;0.779423;1.05;0.7159324;1.238134;-0.8863271;1.656283;-0.8882984;1.660739;
637951248164482935;1039.788;28;3;2;0.6;1.8;994;2.01207243460765;-0.5785094;2.18944;-0.6339683;2.027151;0.779423;1.05;0.7159324;1.238134;
637951248184521690;1041.793;28;3;2;0.6;1.8;2005;0.997506234413965;0.3078185;0.6542768;0.2103515;0.7639245;-0.5785094;2.18944;-0.6339683;2.027151;
637951249407860878;1164.125;28;4;3;0.2;1.4;994;3.01810865191147;-0.2394138;0.8422151;-0.2128585;0.8125262;0;2.2;-0.01240445;2.231564;
637951249416852960;1165.025;28;4;3;0.2;1.4;900;3.33333333333333;0.4499513;2.036231;0.4444129;2.007209;-0.2394138;0.8422151;-0.2128585;0.8125262;
637951249444949500;1167.834;28;4;3;0.2;1.4;2810;1.06761565836299;-0.6062176;1.15;-0.6125801;1.146463;0.4499513;2.036231;0.4444129;2.007209;
637951249457942521;1169.134;28;4;3;0.2;1.4;1299;2.3094688221709;0.6893654;1.621554;0.6467456;1.573751;-0.6062176;1.15;-0.6125801;1.146463;
637951249468935078;1170.233;28;4;3;0.2;1.4;1100;2.72727272727273;-0.6893655;1.621553;-0.648928;1.590103;0.6893654;1.621554;0.6467456;1.573751;
637951249480937869;1171.432;28;4;3;0.2;1.4;1199;2.50208507089241;0.6062179;1.15;0.6095639;1.189488;-0.6893655;1.621553;-0.648928;1.590103;
637951249491980435;1172.537;28;4;3;0.2;1.4;1105;2.71493212669683;-0.4499517;2.036231;-0.4578569;1.987401;0.6062179;1.15;0.6095639;1.189488;
637951249505923678;1173.932;28;4;3;0.2;1.4;1394;2.15208034433285;0.2394144;0.8422153;0.2352092;0.8505079;-0.4499517;2.036231;-0.4578569;1.987401;
637951249527918791;1176.131;28;4;4;0.1;1.4;1100;3.63636363636364;-0.2394138;0.8422151;-0.2130027;0.8651699;0;2.2;0.01425008;2.166509;
637951249543912511;1177.73;28;4;4;0.1;1.4;1599;2.50156347717323;0.4499513;2.036231;0.4059035;2.021343;-0.2394138;0.8422151;-0.2130027;0.8651699;
637951249560906461;1179.429;28;4;4;0.1;1.4;1699;2.35432607416127;-0.6062176;1.15;-0.5811343;1.150582;0.4499513;2.036231;0.4059035;2.021343;
637951249573889480;1180.729;28;4;4;0.1;1.4;1299;3.07929176289453;0.6893654;1.621554;0.6946985;1.616064;-0.6062176;1.15;-0.5811343;1.150582;
637951249586052307;1181.944;28;4;4;0.1;1.4;1216;3.28947368421053;-0.6893655;1.621553;-0.7191475;1.590894;0.6893654;1.621554;0.6946985;1.616064;
637951249600995783;1183.438;28;4;4;0.1;1.4;1494;2.67737617135208;0.6062179;1.15;0.5730721;1.119823;-0.6893655;1.621553;-0.7191475;1.590894;
637951249646966466;1188.036;28;4;4;0.1;1.4;4598;0.869943453675511;-0.4499517;2.036231;-0.4465417;2.022318;0.6062179;1.15;0.5730721;1.119823;
637951249668966453;1190.235;28;4;4;0.1;1.4;2199;1.81900864029104;0.2394144;0.8422153;0.2637909;0.8649341;-0.4499517;2.036231;-0.4465417;2.022318;
637951249689951332;1192.334;28;4;1.5;1.1;2;1199;1.25104253544621;-0.3420197;0.5603072;-0.3089439;0.8772666;0;2.5;-0.08222204;2.163742;
637951249698947295;1193.234;28;4;1.5;1.1;2;900;1.66666666666667;0.6427875;2.266045;0.4692884;2.143065;-0.3420197;0.5603072;-0.3089439;0.8772666;
637951249707946458;1194.134;28;4;1.5;1.1;2;899;1.66852057842047;-0.8660251;0.9999995;-0.762437;1.347286;0.6427875;2.266045;0.4692884;2.143065;
637951249719943555;1195.333;28;4;1.5;1.1;2;1200;1.25;0.9848077;1.673648;0.7037727;1.719583;-0.8660251;0.9999995;-0.762437;1.347286;
637951249728935649;1196.233;28;4;1.5;1.1;2;899;1.66852057842047;-0.9848078;1.673648;-0.7596493;1.774917;0.9848077;1.673648;0.7037727;1.719583;
637951249737937745;1197.132;28;4;1.5;1.1;2;900;1.66666666666667;0.8660256;1;0.6781055;1.150422;-0.9848078;1.673648;-0.7596493;1.774917;
637951249747039855;1198.043;28;4;1.5;1.1;2;911;1.64654226125137;-0.6427882;2.266044;-0.7253104;2.126615;0.8660256;1;0.6781055;1.150422;
637951249755031712;1198.842;28;4;1.5;1.1;2;800;1.875;0.3420205;0.5603075;0.2003639;0.9041889;-0.6427882;2.266044;-0.7253104;2.126615;
637951249773024667;1200.642;28;4;2;0.6;1.8;895;2.23463687150838;-0.3078177;0.6542765;-0.2856335;0.8027813;0;2.4;-0.02411726;2.242564;
637951249794019547;1202.741;28;4;2;0.6;1.8;2099;0.952834683182468;0.5785087;2.18944;0.5188161;2.199697;-0.3078177;0.6542765;-0.2856335;0.8027813;
637951249803011632;1203.64;28;4;2;0.6;1.8;899;2.22469410456062;-0.7794226;1.05;-0.6678644;1.189258;0.5785087;2.18944;0.5188161;2.199697;
637951249812063741;1204.545;28;4;2;0.6;1.8;905;2.20994475138122;0.8863269;1.656283;0.8384289;1.719483;-0.7794226;1.05;-0.6678644;1.189258;
637951249820055606;1205.345;28;4;2;0.6;1.8;800;2.5;-0.8863271;1.656283;-0.6392894;1.607134;0.8863269;1.656283;0.8384289;1.719483;
637951249829997911;1206.339;28;4;2;0.6;1.8;994;2.01207243460765;0.779423;1.05;0.6842113;1.217926;-0.8863271;1.656283;-0.6392894;1.607134;
637951249840990467;1207.438;28;4;2;0.6;1.8;1100;1.81818181818182;-0.5785094;2.18944;-0.5735238;2.120635;0.779423;1.05;0.6842113;1.217926;
637951249848992327;1208.238;28;4;2;0.6;1.8;800;2.5;0.3078185;0.6542768;0.1640557;0.6318021;-0.5785094;2.18944;-0.5735238;2.120635;
637951249873087923;1210.648;28;4;3.5;0.2;2;1481;2.36326806212019;-0.3420197;0.5603072;-0.336865;0.6034002;0;2.5;-0.04304918;2.414251;
637951249888081415;1212.147;28;4;3.5;0.2;2;1499;2.33488992661775;0.6427875;2.266045;0.566406;2.25701;-0.3420197;0.5603072;-0.336865;0.6034002;
637951249899073971;1213.247;28;4;3.5;0.2;2;1099;3.18471337579618;-0.8660251;0.9999995;-0.8765872;1.043768;0.6427875;2.266045;0.566406;2.25701;
637951249909076297;1214.247;28;4;3.5;0.2;2;1000;3.5;0.9848077;1.673648;1.029589;1.628588;-0.8660251;0.9999995;-0.8765872;1.043768;
637951249922069317;1215.546;28;4;3.5;0.2;2;1299;2.69438029253272;-0.9848078;1.673648;-0.9017681;1.712913;0.9848077;1.673648;1.029589;1.628588;
637951249933061867;1216.645;28;4;3.5;0.2;2;1099;3.18471337579618;0.8660256;1;0.8378795;0.9442736;-0.9848078;1.673648;-0.9017681;1.712913;
637951249945054668;1217.845;28;4;3.5;0.2;2;1199;2.91909924937448;-0.6427882;2.266044;-0.6121752;2.223372;0.8660256;1;0.8378795;0.9442736;
637951249957047449;1219.044;28;4;3.5;0.2;2;1199;2.91909924937448;0.3420205;0.5603075;0.4191794;0.5724174;-0.6427882;2.266044;-0.6121752;2.223372;
637951249986094888;1221.948;28;4;4.5;0.1;2.2;1705;2.63929618768328;-0.3762217;0.4663379;-0.3585085;0.4853386;0;2.6;-0.02793706;2.592758;
637951250001028359;1223.442;28;4;4.5;0.1;2.2;1494;3.01204819277108;0.7070663;2.342649;0.659728;2.33044;-0.3762217;0.4663379;-0.3585085;0.4853386;
637951250023133500;1225.652;28;4;4.5;0.1;2.2;2210;2.03619909502262;-0.9526277;0.9499994;-0.9299716;0.9799413;0.7070663;2.342649;0.659728;2.33044;
637951250045178623;1227.856;28;4;4.5;0.1;2.2;2204;2.04174228675136;1.083289;1.691013;1.077408;1.661974;-0.9526277;0.9499994;-0.9299716;0.9799413;
637951250070114421;1230.35;28;4;4.5;0.1;2.2;2494;1.80433039294306;-1.083289;1.691012;-1.102214;1.724149;1.083289;1.691013;1.077408;1.661974;
637951250082107210;1231.55;28;4;4.5;0.1;2.2;1199;3.75312760633862;0.9526281;0.9500003;0.9314903;0.9559627;-1.083289;1.691012;-1.102214;1.724149;
637951250098100930;1233.149;28;4;4.5;0.1;2.2;1599;2.81425891181989;-0.7070671;2.342648;-0.678439;2.318783;0.9526281;0.9500003;0.9314903;0.9559627;
637951250123086737;1235.648;28;4;4.5;0.1;2.2;2499;1.80072028811525;0.3762226;0.4663382;0.3884562;0.465147;-0.7070671;2.342648;-0.678439;2.318783;
637951250151073244;1238.446;28;4;2.5;0.3;1.4;1899;1.31648235913639;-0.2394138;0.8422151;-0.2058346;0.9498129;0;2.2;-0.01571463;2.186013;
637951250160075336;1239.346;28;4;2.5;0.3;1.4;900;2.77777777777778;0.4499513;2.036231;0.4312175;1.952046;-0.2394138;0.8422151;-0.2058346;0.9498129;
637951250177179315;1241.056;28;4;2.5;0.3;1.4;1710;1.46198830409357;-0.6062176;1.15;-0.6000386;1.15414;0.4499513;2.036231;0.4312175;1.952046;
637951250188171871;1242.156;28;4;2.5;0.3;1.4;1099;2.27479526842584;0.6893654;1.621554;0.5817704;1.62402;-0.6062176;1.15;-0.6000386;1.15414;
637951250197163963;1243.055;28;4;2.5;0.3;1.4;900;2.77777777777778;-0.6893655;1.621553;-0.6568397;1.601727;0.6893654;1.621554;0.5817704;1.62402;
637951250219149072;1245.254;28;4;2.5;0.3;1.4;2199;1.1368804001819;0.6062179;1.15;0.5377777;1.244264;-0.6893655;1.621553;-0.6568397;1.601727;
637951250238203501;1247.159;28;4;2.5;0.3;1.4;1905;1.31233595800525;-0.4499517;2.036231;-0.497183;1.931499;0.6062179;1.15;0.5377777;1.244264;
637951250249141095;1248.253;28;4;2.5;0.3;1.4;1094;2.28519195612431;0.2394144;0.8422153;0.1599741;0.8931317;-0.4499517;2.036231;-0.497183;1.931499;
637951250870410084;1310.379;28;5;4.5;0.1;2.2;1299;3.46420323325635;-0.3762217;0.4663379;-0.3388989;0.4994402;0;2.6;-0.01226478;2.552318;
637951250885403569;1311.879;28;5;4.5;0.1;2.2;1500;3;0.7070663;2.342649;0.7142603;2.34131;-0.3762217;0.4663379;-0.3388989;0.4994402;
637951250903397755;1313.678;28;5;4.5;0.1;2.2;1799;2.50138966092273;-0.9526277;0.9499994;-0.9373986;0.9836275;0.7070663;2.342649;0.7142603;2.34131;
637951250929383791;1316.276;28;5;4.5;0.1;2.2;2599;1.73143516737207;1.083289;1.691013;1.068704;1.679421;-0.9526277;0.9499994;-0.9373986;0.9836275;
637951250944377276;1317.776;28;5;4.5;0.1;2.2;1499;3.00200133422282;-1.083289;1.691012;-1.04123;1.696017;1.083289;1.691013;1.068704;1.679421;
637951250972473815;1320.586;28;5;4.5;0.1;2.2;2810;1.60142348754448;0.9526281;0.9500003;0.957036;0.9459794;-1.083289;1.691012;-1.04123;1.696017;
637951250986477070;1321.985;28;5;4.5;0.1;2.2;1400;3.21428571428571;-0.7070671;2.342648;-0.7083197;2.305182;0.9526281;0.9500003;0.957036;0.9459794;
637951251021455204;1325.484;28;5;4.5;0.1;2.2;3498;1.28644939965695;0.3762226;0.4663382;0.3425685;0.486439;-0.7070671;2.342648;-0.7083197;2.305182;
637951251042500095;1327.588;28;5;2;0.6;1.8;1105;1.80995475113122;-0.3078177;0.6542765;-0.3570114;0.9292287;0;2.4;-0.05469075;2.294283;
637951251054442873;1328.782;28;5;2;0.6;1.8;1194;1.6750418760469;0.5785087;2.18944;0.4386394;2.050666;-0.3078177;0.6542765;-0.3570114;0.9292287;
637951251070430889;1330.381;28;5;2;0.6;1.8;1599;1.25078173858662;-0.7794226;1.05;-0.5398409;1.226419;0.5785087;2.18944;0.4386394;2.050666;
637951251080430324;1331.381;28;5;2;0.6;1.8;1000;2;0.8863269;1.656283;0.6782501;1.749359;-0.7794226;1.05;-0.5398409;1.226419;
637951251089422416;1332.28;28;5;2;0.6;1.8;900;2.22222222222222;-0.8863271;1.656283;-0.8415872;1.677742;0.8863269;1.656283;0.6782501;1.749359;
637951251104505921;1333.788;28;5;2;0.6;1.8;1508;1.3262599469496;0.779423;1.05;0.49923;1.107481;-0.8863271;1.656283;-0.8415872;1.677742;
637951251113520600;1334.69;28;5;2;0.6;1.8;902;2.21729490022173;-0.5785094;2.18944;-0.6261243;2.183915;0.779423;1.05;0.49923;1.107481;
637951251135511579;1336.889;28;5;2;0.6;1.8;2199;0.909504320145521;0.3078185;0.6542768;0.2286526;0.7784575;-0.5785094;2.18944;-0.6261243;2.183915;
637951251163498089;1339.688;28;5;3.5;0.2;2;1599;2.18886804252658;-0.3420197;0.5603072;-0.3348178;0.530617;0;2.5;0.0780066;2.507712;
637951251178491571;1341.187;28;5;3.5;0.2;2;1499;2.33488992661775;0.6427875;2.266045;0.6124768;2.229938;-0.3420197;0.5603072;-0.3348178;0.530617;
637951251191604623;1342.498;28;5;3.5;0.2;2;1311;2.6697177726926;-0.8660251;0.9999995;-0.8180168;1.041857;0.6427875;2.266045;0.6124768;2.229938;
637951251204647655;1343.802;28;5;3.5;0.2;2;1304;2.6840490797546;0.9848077;1.673648;0.8988888;1.634827;-0.8660251;0.9999995;-0.8180168;1.041857;
637951251215590200;1344.897;28;5;3.5;0.2;2;1095;3.19634703196347;-0.9848078;1.673648;-0.934998;1.7224;0.9848077;1.673648;0.8988888;1.634827;
637951251232584148;1346.596;28;5;3.5;0.2;2;1699;2.06003531489111;0.8660256;1;0.8300091;1.05425;-0.9848078;1.673648;-0.934998;1.7224;
637951251246577403;1347.995;28;5;3.5;0.2;2;1400;2.5;-0.6427882;2.266044;-0.6041274;2.187217;0.8660256;1;0.8300091;1.05425;
637951251268562514;1350.194;28;5;3.5;0.2;2;2199;1.59163256025466;0.3420205;0.5603075;0.3308596;0.5519269;-0.6427882;2.266044;-0.6041274;2.187217;
637951251301550185;1353.493;28;5;3;0.2;1.4;2194;1.36736554238833;-0.2394138;0.8422151;-0.3001902;0.8517094;0;2.2;-0.07298944;2.215773;
637951251318584144;1355.197;28;5;3;0.2;1.4;1704;1.76056338028169;0.4499513;2.036231;0.4563247;2.026183;-0.2394138;0.8422151;-0.3001902;0.8517094;
637951251332527385;1356.591;28;5;3;0.2;1.4;1394;2.15208034433285;-0.6062176;1.15;-0.5916032;1.143957;0.4499513;2.036231;0.4563247;2.026183;
637951251343579955;1357.696;28;5;3;0.2;1.4;1105;2.71493212669683;0.6893654;1.621554;0.655772;1.664058;-0.6062176;1.15;-0.5916032;1.143957;
637951251362679503;1359.606;28;5;3;0.2;1.4;1910;1.57068062827225;-0.6893655;1.621553;-0.740564;1.656345;0.6893654;1.621554;0.655772;1.664058;
637951251374622468;1360.8;28;5;3;0.2;1.4;1194;2.51256281407035;0.6062179;1.15;0.5097834;1.141165;-0.6893655;1.621553;-0.740564;1.656345;
637951251414610825;1364.799;28;5;3;0.2;1.4;3998;0.750375187593797;-0.4499517;2.036231;-0.4162847;1.971333;0.6062179;1.15;0.5097834;1.141165;
637951251441595562;1367.497;28;5;3;0.2;1.4;2699;1.11152278621712;0.2394144;0.8422153;0.1968585;0.8712826;-0.4499517;2.036231;-0.4162847;1.971333;
637951251462590470;1369.596;28;5;1.5;1.1;2;1194;1.25628140703518;-0.3420197;0.5603072;-0.2387233;0.897445;0;2.5;-0.04836766;2.268523;
637951251486686072;1372.006;28;5;1.5;1.1;2;2410;0.622406639004149;0.6427875;2.266045;0.2916369;1.93636;-0.3420197;0.5603072;-0.2387233;0.897445;
637951251496688400;1373.006;28;5;1.5;1.1;2;1000;1.5;-0.8660251;0.9999995;-0.7210392;1.216215;0.6427875;2.266045;0.2916369;1.93636;
637951251507680955;1374.105;28;5;1.5;1.1;2;1099;1.36487716105551;0.9848077;1.673648;1.083903;1.864663;-0.8660251;0.9999995;-0.7210392;1.216215;
637951251516613032;1374.999;28;5;1.5;1.1;2;893;1.67973124300112;-0.9848078;1.673648;-0.7026298;1.779449;0.9848077;1.673648;1.083903;1.864663;
637951251525715144;1375.909;28;5;1.5;1.1;2;911;1.64654226125137;0.8660256;1;0.765837;1.209586;-0.9848078;1.673648;-0.7026298;1.779449;
637951251533717004;1376.709;28;5;1.5;1.1;2;800;1.875;-0.6427882;2.266044;-0.5583169;2.153517;0.8660256;1;0.765837;1.209586;
637951251542659084;1377.604;28;5;1.5;1.1;2;895;1.67597765363128;0.3420205;0.5603075;0.1374187;0.6935933;-0.6427882;2.266044;-0.5583169;2.153517;
637951251617626516;1385.1;28;5;4;0.1;1.4;6197;0.645473616265935;-0.2394138;0.8422151;-0.2201737;0.8556322;0;2.2;-0.0003945231;2.156818;
637951251634730494;1386.811;28;5;4;0.1;1.4;1710;2.33918128654971;0.4499513;2.036231;0.418554;2.025728;-0.2394138;0.8422151;-0.2201737;0.8556322;
637951251663717231;1389.709;28;5;4;0.1;1.4;2899;1.37978613314936;-0.6062176;1.15;-0.5918107;1.124197;0.4499513;2.036231;0.418554;2.025728;
637951251689703269;1392.308;28;5;4;0.1;1.4;2599;1.5390534821085;0.6893654;1.621554;0.6653582;1.605713;-0.6062176;1.15;-0.5918107;1.124197;
637951251713688850;1394.707;28;5;4;0.1;1.4;2399;1.66736140058358;-0.6893655;1.621553;-0.6785423;1.60302;0.6893654;1.621554;0.6653582;1.605713;
637951251741789292;1397.517;28;5;4;0.1;1.4;2810;1.42348754448399;0.6062179;1.15;0.6066458;1.122097;-0.6893655;1.621553;-0.6785423;1.60302;
637951251762784164;1399.616;28;5;4;0.1;1.4;2099;1.90566936636494;-0.4499517;2.036231;-0.4364132;2.024818;0.6062179;1.15;0.6066458;1.122097;
637951251783884114;1401.726;28;5;4;0.1;1.4;2110;1.8957345971564;0.2394144;0.8422153;0.2084658;0.8669043;-0.4499517;2.036231;-0.4364132;2.024818;
637951251803879154;1403.725;28;5;2.5;0.3;1.4;1095;2.28310502283105;-0.2394138;0.8422151;-0.1790707;0.8892069;0;2.2;-0.06257688;2.203237;
637951251812871246;1404.625;28;5;2.5;0.3;1.4;900;2.77777777777778;0.4499513;2.036231;0.4500579;1.998461;-0.2394138;0.8422151;-0.1790707;0.8892069;
637951251824864034;1405.824;28;5;2.5;0.3;1.4;1199;2.08507089241034;-0.6062176;1.15;-0.5596325;1.191283;0.4499513;2.036231;0.4500579;1.998461;
637951251835856589;1406.923;28;5;2.5;0.3;1.4;1100;2.27272727272727;0.6893654;1.621554;0.6178555;1.561509;-0.6062176;1.15;-0.5596325;1.191283;
637951251845858914;1407.923;28;5;2.5;0.3;1.4;1000;2.5;-0.6893655;1.621553;-0.6840642;1.645003;0.6893654;1.621554;0.6178555;1.561509;
637951251858851946;1409.222;28;5;2.5;0.3;1.4;1299;1.92455735180908;0.6062179;1.15;0.483223;1.079213;-0.6893655;1.621553;-0.6840642;1.645003;
637951251869844494;1410.322;28;5;2.5;0.3;1.4;1100;2.27272727272727;-0.4499517;2.036231;-0.5010874;2.078738;0.6062179;1.15;0.483223;1.079213;
637951251879836816;1411.321;28;5;2.5;0.3;1.4;999;2.5025025025025;0.2394144;0.8422153;0.2051433;0.8567349;-0.4499517;2.036231;-0.5010874;2.078738;
637951252676143129;1490.951;28;6;3.5;0.2;2;1499;2.33488992661775;-0.3420197;0.5603072;-0.4124784;0.6306915;0;2.5;0.03294919;2.477659;
637951252687135677;1492.051;28;6;3.5;0.2;2;1099;3.18471337579618;0.6427875;2.266045;0.5654525;2.310439;-0.3420197;0.5603072;-0.4124784;0.6306915;
637951252702129170;1493.55;28;6;3.5;0.2;2;1499;2.33488992661775;-0.8660251;0.9999995;-0.7968243;0.9884005;0.6427875;2.266045;0.5654525;2.310439;
637951252714121958;1494.749;28;6;3.5;0.2;2;1199;2.91909924937448;0.9848077;1.673648;0.9685059;1.658169;-0.8660251;0.9999995;-0.7968243;0.9884005;
637951252728125213;1496.149;28;6;3.5;0.2;2;1400;2.5;-0.9848078;1.673648;-0.9613644;1.615286;0.9848077;1.673648;0.9685059;1.658169;
637951252740118001;1497.348;28;6;3.5;0.2;2;1200;2.91666666666667;0.8660256;1;0.8502169;1.048108;-0.9848078;1.673648;-0.9613644;1.615286;
637951252751110558;1498.448;28;6;3.5;0.2;2;1099;3.18471337579618;-0.6427882;2.266044;-0.6491427;2.22658;0.8660256;1;0.8502169;1.048108;
637951252767214300;1500.058;28;6;3.5;0.2;2;1610;2.17391304347826;0.3420205;0.5603075;0.3064176;0.6100831;-0.6427882;2.266044;-0.6491427;2.22658;
637951252828178201;1506.155;28;6;4.5;0.1;2.2;3098;1.45255003227889;-0.3762217;0.4663379;-0.4200234;0.4677882;0;2.6;-0.01597185;2.590009;
637951252843171685;1507.654;28;6;4.5;0.1;2.2;1499;3.00200133422282;0.7070663;2.342649;0.7389032;2.30617;-0.3762217;0.4663379;-0.4200234;0.4677882;
637951252869276196;1510.264;28;6;4.5;0.1;2.2;2610;1.72413793103448;-0.9526277;0.9499994;-0.938349;0.9356605;0.7070663;2.342649;0.7389032;2.30617;
637951252914255079;1514.762;28;6;4.5;0.1;2.2;4498;1.00044464206314;1.083289;1.691013;1.045177;1.685256;-0.9526277;0.9499994;-0.938349;0.9356605;
637951252931249031;1516.461;28;6;4.5;0.1;2.2;1699;2.64861683343143;-1.083289;1.691012;-1.033461;1.686919;1.083289;1.691013;1.045177;1.685256;
637951252946242514;1517.961;28;6;4.5;0.1;2.2;1499;3.00200133422282;0.9526281;0.9500003;0.9214621;0.9578233;-1.083289;1.691012;-1.033461;1.686919;
637951252969227859;1520.259;28;6;4.5;0.1;2.2;2299;1.9573727707699;-0.7070671;2.342648;-0.7008185;2.329368;0.9526281;0.9500003;0.9214621;0.9578233;
637951252994333695;1522.77;28;6;4.5;0.1;2.2;2510;1.79282868525896;0.3762226;0.4663382;0.3496741;0.4604174;-0.7070671;2.342648;-0.7008185;2.329368;
637951253017319041;1525.068;28;6;2.5;0.3;1.4;1500;1.66666666666667;-0.2394138;0.8422151;-0.252504;0.8796629;0;2.2;0.008000521;2.200148;
637951253026321133;1525.968;28;6;2.5;0.3;1.4;899;2.78086763070078;0.4499513;2.036231;0.4304022;1.983738;-0.2394138;0.8422151;-0.252504;0.8796629;
637951253035313225;1526.867;28;6;2.5;0.3;1.4;900;2.77777777777778;-0.6062176;1.15;-0.5694082;1.20145;0.4499513;2.036231;0.4304022;1.983738;
637951253045315550;1527.867;28;6;2.5;0.3;1.4;1000;2.5;0.6893654;1.621554;0.7015089;1.617475;-0.6062176;1.15;-0.5694082;1.20145;
637951253054297637;1528.767;28;6;2.5;0.3;1.4;899;2.78086763070078;-0.6893655;1.621553;-0.5852776;1.653042;0.6893654;1.621554;0.7015089;1.617475;
637951253064299963;1529.766;28;6;2.5;0.3;1.4;999;2.5025025025025;0.6062179;1.15;0.5737715;1.126974;-0.6893655;1.621553;-0.5852776;1.653042;
637951253072291820;1530.566;28;6;2.5;0.3;1.4;800;3.125;-0.4499517;2.036231;-0.4818085;2.165817;0.6062179;1.15;0.5737715;1.126974;
637951253080303684;1531.366;28;6;2.5;0.3;1.4;801;3.1210986267166;0.2394144;0.8422153;0.1271937;0.9065335;-0.4499517;2.036231;-0.4818085;2.165817;
637951253104279259;1533.764;28;6;2;0.6;1.8;1199;1.66805671392827;-0.3078177;0.6542765;-0.322691;0.7618326;0;2.4;-0.01473874;2.221333;
637951253114271577;1534.764;28;6;2;0.6;1.8;1000;2;0.5785087;2.18944;0.4446913;2.144831;-0.3078177;0.6542765;-0.322691;0.7618326;
637951253124273909;1535.764;28;6;2;0.6;1.8;1000;2;-0.7794226;1.05;-0.8269498;1.122334;0.5785087;2.18944;0.4446913;2.144831;
637951253134266230;1536.763;28;6;2;0.6;1.8;1000;2;0.8863269;1.656283;0.741138;1.736588;-0.7794226;1.05;-0.8269498;1.122334;
637951253145258785;1537.863;28;6;2;0.6;1.8;1099;1.81983621474067;-0.8863271;1.656283;-0.7884085;1.673994;0.8863269;1.656283;0.741138;1.736588;
637951253154370906;1538.773;28;6;2;0.6;1.8;911;2.1953896816685;0.779423;1.05;0.6658725;1.161515;-0.8863271;1.656283;-0.7884085;1.673994;
637951253162362756;1539.573;28;6;2;0.6;1.8;799;2.50312891113892;-0.5785094;2.18944;-0.6311364;2.057762;0.779423;1.05;0.6658725;1.161515;
637951253172365089;1540.572;28;6;2;0.6;1.8;1000;2;0.3078185;0.6542768;0.439207;0.8233802;-0.5785094;2.18944;-0.6311364;2.057762;
637951253196345267;1542.971;28;6;3;0.2;1.4;1299;2.3094688221709;-0.2394138;0.8422151;-0.216226;0.855836;0;2.2;-0.06969608;2.137377;
637951253232338501;1546.569;28;6;3;0.2;1.4;3598;0.833796553640912;0.4499513;2.036231;0.4667785;2.00528;-0.2394138;0.8422151;-0.216226;0.855836;
637951253244331839;1547.769;28;6;3;0.2;1.4;1199;2.50208507089241;-0.6062176;1.15;-0.5482414;1.181281;0.4499513;2.036231;0.4667785;2.00528;
637951253256314624;1548.968;28;6;3;0.2;1.4;1199;2.50208507089241;0.6893654;1.621554;0.6333092;1.639653;-0.6062176;1.15;-0.5482414;1.181281;
637951253265316715;1549.868;28;6;3;0.2;1.4;900;3.33333333333333;-0.6893655;1.621553;-0.6674939;1.582312;0.6893654;1.621554;0.6333092;1.639653;
637951253280310201;1551.367;28;6;3;0.2;1.4;1499;2.00133422281521;0.6062179;1.15;0.5988804;1.104395;-0.6893655;1.621553;-0.6674939;1.582312;
637951253292302994;1552.567;28;6;3;0.2;1.4;1199;2.50208507089241;-0.4499517;2.036231;-0.4014149;1.94983;0.6062179;1.15;0.5988804;1.104395;
637951253310407197;1554.377;28;6;3;0.2;1.4;1810;1.65745856353591;0.2394144;0.8422153;0.2335083;0.9096859;-0.4499517;2.036231;-0.4014149;1.94983;
637951253345385331;1557.875;28;6;4;0.1;1.4;1999;2.00100050025012;-0.2394138;0.8422151;-0.2044439;0.8617623;0;2.2;-0.01240093;2.199741;
637951253373371838;1560.674;28;6;4;0.1;1.4;2799;1.4290818149339;0.4499513;2.036231;0.4587211;2.000183;-0.2394138;0.8422151;-0.2044439;0.8617623;
637951253397367419;1563.073;28;6;4;0.1;1.4;2399;1.66736140058358;-0.6062176;1.15;-0.6112916;1.106058;0.4499513;2.036231;0.4587211;2.000183;
637951253417362068;1565.072;28;6;4;0.1;1.4;1999;2.00100050025012;0.6893654;1.621554;0.7220016;1.642362;-0.6062176;1.15;-0.6112916;1.106058;
637951253431355321;1566.471;28;6;4;0.1;1.4;1399;2.85918513223731;-0.6893655;1.621553;-0.6746117;1.587459;0.6893654;1.621554;0.7220016;1.642362;
637951253457341366;1569.07;28;6;4;0.1;1.4;2599;1.5390534821085;0.6062179;1.15;0.6109095;1.133891;-0.6893655;1.621553;-0.6746117;1.587459;
637951253489438818;1572.28;28;6;4;0.1;1.4;3209;1.24649423496416;-0.4499517;2.036231;-0.426729;2.037723;0.6062179;1.15;0.6109095;1.133891;
637951253507433008;1574.079;28;6;4;0.1;1.4;1799;2.22345747637576;0.2394144;0.8422153;0.2026829;0.8657742;-0.4499517;2.036231;-0.426729;2.037723;
637951253525420904;1575.878;28;6;1.5;1.1;2;799;1.87734668335419;-0.3420197;0.5603072;-0.1584816;0.9382149;0;2.5;-0.02697372;2.242914;
637951253534413399;1576.778;28;6;1.5;1.1;2;899;1.66852057842047;0.6427875;2.266045;0.3969041;2.080368;-0.3420197;0.5603072;-0.1584816;0.9382149;
637951253542415254;1577.577;28;6;1.5;1.1;2;800;1.875;-0.8660251;0.9999995;-0.5127058;1.231253;0.6427875;2.266045;0.3969041;2.080368;
637951253551407340;1578.477;28;6;1.5;1.1;2;900;1.66666666666667;0.9848077;1.673648;0.7482112;1.730245;-0.8660251;0.9999995;-0.5127058;1.231253;
637951253559409203;1579.277;28;6;1.5;1.1;2;800;1.875;-0.9848078;1.673648;-0.7556328;1.723342;0.9848077;1.673648;0.7482112;1.730245;
637951253569453004;1580.281;28;6;1.5;1.1;2;1004;1.49402390438247;0.8660256;1;0.5477446;1.199528;-0.9848078;1.673648;-0.7556328;1.723342;
637951253577404857;1581.076;28;6;1.5;1.1;2;795;1.88679245283019;-0.6427882;2.266044;-0.5850649;2.12845;0.8660256;1;0.5477446;1.199528;
637951253586398294;1581.975;28;6;1.5;1.1;2;899;1.66852057842047;0.3420205;0.5603075;0.2089769;0.9419398;-0.6427882;2.266044;-0.5850649;2.12845;
637951254227771186;1646.112;28;7;2;0.6;1.8;898;2.2271714922049;-0.3078177;0.6542765;-0.4018279;0.801463;0;2.4;-0.05940064;2.457963;
637951254235763048;1646.912;28;7;2;0.6;1.8;800;2.5;0.5785087;2.18944;0.3824566;2.065118;-0.3078177;0.6542765;-0.4018279;0.801463;
637951254246757647;1648.011;28;7;2;0.6;1.8;1099;1.81983621474067;-0.7794226;1.05;-0.8047503;1.140815;0.5785087;2.18944;0.3824566;2.065118;
637951254254749707;1648.811;28;7;2;0.6;1.8;799;2.50312891113892;0.8863269;1.656283;0.8593329;1.713832;-0.7794226;1.05;-0.8047503;1.140815;
637951254262747585;1649.61;28;7;2;0.6;1.8;800;2.5;-0.8863271;1.656283;-0.8810013;1.594581;0.8863269;1.656283;0.8593329;1.713832;
637951254271749678;1650.51;28;7;2;0.6;1.8;900;2.22222222222222;0.779423;1.05;0.7178957;1.184692;-0.8863271;1.656283;-0.8810013;1.594581;
637951254279741533;1651.31;28;7;2;0.6;1.8;800;2.5;-0.5785094;2.18944;-0.537203;2.116222;0.779423;1.05;0.7178957;1.184692;
637951254287743396;1652.109;28;7;2;0.6;1.8;800;2.5;0.3078185;0.6542768;0.2632587;0.7160383;-0.5785094;2.18944;-0.537203;2.116222;
637951254321837021;1655.519;28;7;2.5;0.3;1.4;2710;0.922509225092251;-0.2394138;0.8422151;-0.2646482;0.9466938;0;2.2;-0.05316818;2.127611;
637951254330829110;1656.419;28;7;2.5;0.3;1.4;900;2.77777777777778;0.4499513;2.036231;0.4082876;1.990198;-0.2394138;0.8422151;-0.2646482;0.9466938;
637951254340821435;1657.418;28;7;2.5;0.3;1.4;999;2.5025025025025;-0.6062176;1.15;-0.5927846;1.197439;0.4499513;2.036231;0.4082876;1.990198;
637951254348823299;1658.218;28;7;2.5;0.3;1.4;800;3.125;0.6893654;1.621554;0.8171148;1.596754;-0.6062176;1.15;-0.5927846;1.197439;
637951254358815615;1659.217;28;7;2.5;0.3;1.4;999;2.5025025025025;-0.6893655;1.621553;-0.6828495;1.675392;0.6893654;1.621554;0.8171148;1.596754;
637951254366817481;1660.017;28;7;2.5;0.3;1.4;800;3.125;0.6062179;1.15;0.5506277;1.22661;-0.6893655;1.621553;-0.6828495;1.675392;
637951254376809803;1661.016;28;7;2.5;0.3;1.4;1000;2.5;-0.4499517;2.036231;-0.4269471;2.015942;0.6062179;1.15;0.5506277;1.22661;
637951254385811892;1661.916;28;7;2.5;0.3;1.4;900;2.77777777777778;0.2394144;0.8422153;0.2404801;0.8428051;-0.4499517;2.036231;-0.4269471;2.015942;
637951254408797238;1664.215;28;7;3;0.2;1.4;1200;2.5;-0.2394138;0.8422151;-0.2197346;0.8906373;0;2.2;-0.008238714;2.166673;
637951254437783982;1667.113;28;7;3;0.2;1.4;2898;1.0351966873706;0.4499513;2.036231;0.4971448;2.032121;-0.2394138;0.8422151;-0.2197346;0.8906373;
637951254459879113;1669.324;28;7;3;0.2;1.4;2210;1.35746606334842;-0.6062176;1.15;-0.5687661;1.240246;0.4499513;2.036231;0.4971448;2.032121;
637951254470881673;1670.423;28;7;3;0.2;1.4;1100;2.72727272727273;0.6893654;1.621554;0.6705631;1.587849;-0.6062176;1.15;-0.5687661;1.240246;
637951254490876323;1672.423;28;7;3;0.2;1.4;2000;1.5;-0.6893655;1.621553;-0.7574464;1.654439;0.6893654;1.621554;0.6705631;1.587849;
637951254509860737;1674.321;28;7;3;0.2;1.4;1898;1.58061116965227;0.6062179;1.15;0.6096111;1.155039;-0.6893655;1.621553;-0.7574464;1.654439;
637951254519853057;1675.321;28;7;3;0.2;1.4;999;3.003003003003;-0.4499517;2.036231;-0.476539;2.041607;0.6062179;1.15;0.6096111;1.155039;
637951254538847476;1677.22;28;7;3;0.2;1.4;1899;1.57977883096367;0.2394144;0.8422153;0.2714849;0.8058312;-0.4499517;2.036231;-0.476539;2.041607;
637951254579827002;1681.318;28;7;3.5;0.2;2;1400;2.5;-0.3420197;0.5603072;-0.3734576;0.6004205;0;2.5;-0.03801143;2.490516;
637951254591819790;1682.517;28;7;3.5;0.2;2;1199;2.91909924937448;0.6427875;2.266045;0.5938897;2.199181;-0.3420197;0.5603072;-0.3734576;0.6004205;
637951254616924626;1685.027;28;7;3.5;0.2;2;2510;1.39442231075697;-0.8660251;0.9999995;-0.8458793;1.028114;0.6427875;2.266045;0.5938897;2.199181;
637951254634915113;1686.827;28;7;3.5;0.2;2;1799;1.94552529182879;0.9848077;1.673648;0.9628522;1.64024;-0.8660251;0.9999995;-0.8458793;1.028114;
637951254659900917;1689.325;28;7;3.5;0.2;2;2499;1.40056022408964;-0.9848078;1.673648;-0.9743742;1.689301;0.9848077;1.673648;0.9628522;1.64024;
637951254705881610;1693.923;28;7;3.5;0.2;2;4598;0.761200521966072;0.8660256;1;0.841258;0.9428569;-0.9848078;1.673648;-0.9743742;1.689301;
637951254718874631;1695.223;28;7;3.5;0.2;2;1299;2.69438029253272;-0.6427882;2.266044;-0.6047527;2.285131;0.8660256;1;0.841258;0.9428569;
637951254731977675;1696.533;28;7;3.5;0.2;2;1310;2.67175572519084;0.3420205;0.5603075;0.3778325;0.5953428;-0.6427882;2.266044;-0.6047527;2.285131;
637951254746971167;1698.032;28;7;1.5;1.1;2;699;2.14592274678112;-0.3420197;0.5603072;-0.3446311;0.83398;0;2.5;0.005662948;2.245116;
637951254756973489;1699.032;28;7;1.5;1.1;2;1000;1.5;0.6427875;2.266045;0.4174177;2.085422;-0.3420197;0.5603072;-0.3446311;0.83398;
637951254766965813;1700.031;28;7;1.5;1.1;2;1000;1.5;-0.8660251;0.9999995;-0.7740244;1.236721;0.6427875;2.266045;0.4174177;2.085422;
637951254777958369;1701.131;28;7;1.5;1.1;2;1100;1.36363636363636;0.9848077;1.673648;0.6607528;1.776193;-0.8660251;0.9999995;-0.7740244;1.236721;
637951254786960462;1702.031;28;7;1.5;1.1;2;900;1.66666666666667;-0.9848078;1.673648;-0.9196422;1.834146;0.9848077;1.673648;0.6607528;1.776193;
637951254797953017;1703.13;28;7;1.5;1.1;2;1100;1.36363636363636;0.8660256;1;0.6897787;1.209237;-0.9848078;1.673648;-0.9196422;1.834146;
637951254806945107;1704.03;28;7;1.5;1.1;2;899;1.66852057842047;-0.6427882;2.266044;-0.5906457;2.154573;0.8660256;1;0.6897787;1.209237;
637951254819938131;1705.329;28;7;1.5;1.1;2;1299;1.15473441108545;0.3420205;0.5603075;0.257423;0.8380697;-0.6427882;2.266044;-0.5906457;2.154573;
637951254855916493;1708.927;28;7;4;0.1;1.4;2399;1.66736140058358;-0.2394138;0.8422151;-0.2422092;0.8572681;0;2.2;0.01687191;2.160925;
637951254872920448;1710.627;28;7;4;0.1;1.4;1699;2.35432607416127;0.4499513;2.036231;0.4407183;1.997139;-0.2394138;0.8422151;-0.2422092;0.8572681;
637951254889024192;1712.237;28;7;4;0.1;1.4;1610;2.48447204968944;-0.6062176;1.15;-0.572551;1.161741;0.4499513;2.036231;0.4407183;1.997139;
637951254918006596;1715.136;28;7;4;0.1;1.4;2899;1.37978613314936;0.6893654;1.621554;0.6762151;1.627965;-0.6062176;1.15;-0.572551;1.161741;
637951254932996385;1716.635;28;7;4;0.1;1.4;1499;2.66844563042028;-0.6893655;1.621553;-0.6695675;1.592635;0.6893654;1.621554;0.6762151;1.627965;
637951254944999178;1717.834;28;7;4;0.1;1.4;1200;3.33333333333333;0.6062179;1.15;0.5659105;1.141864;-0.6893655;1.621553;-0.6695675;1.592635;
637951254988981077;1722.232;28;7;4;0.1;1.4;4398;0.909504320145521;-0.4499517;2.036231;-0.4149321;2.007213;0.6062179;1.15;0.5659105;1.141864;
637951255011964843;1724.531;28;7;4;0.1;1.4;2299;1.73988690735102;0.2394144;0.8422153;0.2202341;0.8720502;-0.4499517;2.036231;-0.4149321;2.007213;
637951255049053471;1728.241;28;7;4.5;0.1;2.2;2409;1.86799501867995;-0.3762217;0.4663379;-0.3924093;0.4765447;0;2.6;-0.03970965;2.609906;
637951255064056954;1729.74;28;7;4.5;0.1;2.2;1500;3;0.7070663;2.342649;0.7270867;2.29886;-0.3762217;0.4663379;-0.3924093;0.4765447;
637951255088042530;1732.139;28;7;4.5;0.1;2.2;2399;1.87578157565652;-0.9526277;0.9499994;-0.9198189;0.9626498;0.7070663;2.342649;0.7270867;2.29886;
637951255114028573;1734.738;28;7;4.5;0.1;2.2;2599;1.73143516737207;1.083289;1.691013;1.079548;1.704375;-0.9526277;0.9499994;-0.9198189;0.9626498;
637951255137013915;1737.036;28;7;4.5;0.1;2.2;2299;1.9573727707699;-1.083289;1.691012;-1.066509;1.674845;1.083289;1.691013;1.079548;1.704375;
637951255152007401;1738.536;28;7;4.5;0.1;2.2;1499;3.00200133422282;0.9526281;0.9500003;0.9542214;0.9912664;-1.083289;1.691012;-1.066509;1.674845;
637951255167220940;1740.064;28;7;4.5;0.1;2.2;1528;2.94502617801047;-0.7070671;2.342648;-0.7068343;2.294721;0.9526281;0.9500003;0.9542214;0.9912664;
637951255207090208;1744.044;28;7;4.5;0.1;2.2;3980;1.13065326633166;0.3762226;0.4663382;0.3708471;0.4773833;-0.7070671;2.342648;-0.7068343;2.294721;
