637951269755307580;369.1977;29;0;4;0.1;1.4;900;4.44444444444444;-0.2394138;0.8422151;-0.2731583;0.8240855;0;2.2;-0.00692698;2.186316;
637951269773291684;370.9969;29;0;4;0.1;1.4;1799;2.22345747637576;0.4499513;2.036231;0.4302276;2.022177;-0.2394138;0.8422151;-0.2731583;0.8240855;
637951269787294874;372.3968;29;0;4;0.1;1.4;1400;2.85714285714286;-0.6062176;1.15;-0.5985432;1.137465;0.4499513;2.036231;0.4302276;2.022177;
637951269804388772;374.1064;29;0;4;0.1;1.4;1710;2.33918128654971;0.6893654;1.621554;0.6742811;1.624619;-0.6062176;1.15;-0.5985432;1.137465;
637951269892353065;382.9026;29;0;4;0.1;1.4;8796;0.45475216007276;-0.6893655;1.621553;-0.6957379;1.649105;0.6893654;1.621554;0.6742811;1.624619;
637951269910347168;384.7021;29;0;4;0.1;1.4;1799;2.22345747637576;0.6062179;1.15;0.5576109;1.154232;-0.6893655;1.621553;-0.6957379;1.649105;
637951269934332644;387.1004;29;0;4;0.1;1.4;2398;1.66805671392827;-0.4499517;2.036231;-0.4596519;2.040855;0.6062179;1.15;0.5576109;1.154232;
637951269952326746;388.8999;29;0;4;0.1;1.4;1799;2.22345747637576;0.2394144;0.8422153;0.2038222;0.8626283;-0.4499517;2.036231;-0.4596519;2.040855;
637951269980423153;391.7097;29;0;2;0.6;1.8;1510;1.32450331125828;-0.3078177;0.6542765;-0.2957967;0.7965611;0;2.4;-0.04031442;2.323867;
637951269993416115;393.009;29;0;2;0.6;1.8;1299;1.53964588144727;0.5785087;2.18944;0.4927653;2.157781;-0.3078177;0.6542765;-0.2957967;0.7965611;
637951270004418624;394.109;29;0;2;0.6;1.8;1100;1.81818181818182;-0.7794226;1.05;-0.7031182;1.061008;0.5785087;2.18944;0.4927653;2.157781;
637951270016411360;395.3082;29;0;2;0.6;1.8;1199;1.66805671392827;0.8863269;1.656283;0.7872692;1.642089;-0.7794226;1.05;-0.7031182;1.061008;
637951270023402958;396.0074;29;0;2;0.6;1.8;699;2.86123032904149;-0.8863271;1.656283;-0.8430397;1.652597;0.8863269;1.656283;0.7872692;1.642089;
637951270037406144;397.4073;29;0;2;0.6;1.8;1400;1.42857142857143;0.779423;1.05;0.6353533;1.189557;-0.8863271;1.656283;-0.8430397;1.652597;
637951270051499357;398.8175;29;0;2;0.6;1.8;1410;1.41843971631206;-0.5785094;2.18944;-0.5538129;2.140547;0.779423;1.05;0.6353533;1.189557;
637951270062491867;399.9167;29;0;2;0.6;1.8;1099;1.81983621474067;0.3078185;0.6542768;0.2906658;0.7790684;-0.5785094;2.18944;-0.5538129;2.140547;
637951270077495284;401.4164;29;0;1.5;1.1;2;600;2.5;-0.3420197;0.5603072;-0.4285491;1.072511;0;2.5;-0.03835142;2.409124;
637951270088487791;402.5158;29;0;1.5;1.1;2;1099;1.36487716105551;0.6427875;2.266045;0.428179;2.08683;-0.3420197;0.5603072;-0.4285491;1.072511;
637951270097479842;403.4156;29;0;1.5;1.1;2;900;1.66666666666667;-0.8660251;0.9999995;-0.7520821;1.306526;0.6427875;2.266045;0.428179;2.08683;
637951270123475768;406.0144;29;0;1.5;1.1;2;2599;0.577145055790689;0.9848077;1.673648;0.7010831;1.736257;-0.8660251;0.9999995;-0.7520821;1.306526;
637951270135468505;407.2137;29;0;1.5;1.1;2;1199;1.25104253544621;-0.9848078;1.673648;-0.7986515;1.684268;0.9848077;1.673648;0.7010831;1.736257;
637951270147571260;408.4242;29;0;1.5;1.1;2;1211;1.23864574731627;0.8660256;1;0.7369166;1.295223;-0.9848078;1.673648;-0.7986515;1.684268;
637951270158563772;409.5237;29;0;1.5;1.1;2;1099;1.36487716105551;-0.6427882;2.266044;-0.6294042;2.244093;0.8660256;1;0.7369166;1.295223;
637951270171559376;410.823;29;0;1.5;1.1;2;1299;1.15473441108545;0.3420205;0.5603075;0.363831;0.723242;-0.6427882;2.266044;-0.6294042;2.244093;
637951270203541499;414.0216;29;0;3;0.2;1.4;1699;1.76574455562095;-0.2394138;0.8422151;-0.2434713;0.9155532;0;2.2;-0.04926983;2.159606;
637951270221535603;415.8207;29;0;3;0.2;1.4;1799;1.66759310728182;0.4499513;2.036231;0.3918977;2.000092;-0.2394138;0.8422151;-0.2434713;0.9155532;
637951270235528856;417.2198;29;0;3;0.2;1.4;1399;2.14438884917798;-0.6062176;1.15;-0.5869374;1.174635;0.4499513;2.036231;0.3918977;2.000092;
637951270260520198;419.7191;29;0;3;0.2;1.4;2499;1.20048019207683;0.6893654;1.621554;0.6336061;1.61221;-0.6062176;1.15;-0.5869374;1.174635;
637951270269512252;420.6185;29;0;3;0.2;1.4;899;3.33704115684093;-0.6893655;1.621553;-0.6418201;1.612895;0.6893654;1.621554;0.6336061;1.61221;
637951270281615013;421.829;29;0;3;0.2;1.4;1210;2.47933884297521;0.6062179;1.15;0.5950478;1.153525;-0.6893655;1.621553;-0.6418201;1.612895;
637951270291617293;422.8286;29;0;3;0.2;1.4;1000;3;-0.4499517;2.036231;-0.4381407;2.018953;0.6062179;1.15;0.5950478;1.153525;
637951270303600026;424.0277;29;0;3;0.2;1.4;1199;2.50208507089241;0.2394144;0.8422153;0.2219895;0.8942955;-0.4499517;2.036231;-0.4381407;2.018953;
637951270329595953;426.6269;29;0;3.5;0.2;2;1200;2.91666666666667;-0.3420197;0.5603072;-0.3464575;0.6318607;0;2.5;-0.03105271;2.491945;
637951270343589143;428.0259;29;0;3.5;0.2;2;1399;2.50178699070765;0.6427875;2.266045;0.6207182;2.245516;-0.3420197;0.5603072;-0.3464575;0.6318607;
637951270352591197;428.9258;29;0;3.5;0.2;2;900;3.88888888888889;-0.8660251;0.9999995;-0.7971088;1.056359;0.6427875;2.266045;0.6207182;2.245516;
637951270372575744;430.9247;29;0;3.5;0.2;2;1999;1.75087543771886;0.9848077;1.673648;0.9188542;1.676096;-0.8660251;0.9999995;-0.7971088;1.056359;
637951270384568486;432.1243;29;0;3.5;0.2;2;1200;2.91666666666667;-0.9848078;1.673648;-0.9137905;1.639822;0.9848077;1.673648;0.9188542;1.676096;
637951270395560990;433.2237;29;0;3.5;0.2;2;1099;3.18471337579618;0.8660256;1;0.8087403;1.017984;-0.9848078;1.673648;-0.9137905;1.639822;
637951270406553498;434.3231;29;0;3.5;0.2;2;1099;3.18471337579618;-0.6427882;2.266044;-0.6077014;2.240695;0.8660256;1;0.8087403;1.017984;
637951270418556237;435.5228;29;0;3.5;0.2;2;1200;2.91666666666667;0.3420205;0.5603075;0.342904;0.5565437;-0.6427882;2.266044;-0.6077014;2.240695;
637951270437660593;437.4329;29;0;2.5;0.3;1.4;900;2.77777777777778;-0.2394138;0.8422151;-0.1653453;0.9474142;0;2.2;0.01885702;2.162055;
637951270447652869;438.4325;29;0;2.5;0.3;1.4;1000;2.5;0.4499513;2.036231;0.5327959;2.052792;-0.2394138;0.8422151;-0.1653453;0.9474142;
637951270455644694;439.2319;29;0;2.5;0.3;1.4;799;3.12891113892365;-0.6062176;1.15;-0.602646;1.138413;0.4499513;2.036231;0.5327959;2.052792;
637951270465647475;440.2315;29;0;2.5;0.3;1.4;1000;2.5;0.6893654;1.621554;0.6580461;1.583519;-0.6062176;1.15;-0.602646;1.138413;
637951270472639072;440.9309;29;0;2.5;0.3;1.4;699;3.57653791130186;-0.6893655;1.621553;-0.638759;1.580531;0.6893654;1.621554;0.6580461;1.583519;
637951270482631353;441.9307;29;0;2.5;0.3;1.4;1000;2.5;0.6062179;1.15;0.4951162;1.194531;-0.6893655;1.621553;-0.638759;1.580531;
637951270493636095;443.0305;29;0;2.5;0.3;1.4;1100;2.27272727272727;-0.4499517;2.036231;-0.413216;1.952561;0.6062179;1.15;0.4951162;1.194531;
637951270502628145;443.9298;29;0;2.5;0.3;1.4;899;2.78086763070078;0.2394144;0.8422153;0.1578607;0.8677979;-0.4499517;2.036231;-0.413216;1.952561;
637951270557600677;449.4276;29;0;4.5;0.1;2.2;3199;1.40668959049703;-0.3762217;0.4663379;-0.3782993;0.4790856;0;2.6;-0.009030761;2.5685;
637951270575594782;451.2264;29;0;4.5;0.1;2.2;1799;2.50138966092273;0.7070663;2.342649;0.6800579;2.315149;-0.3762217;0.4663379;-0.3782993;0.4790856;
637951270592698680;452.9369;29;0;4.5;0.1;2.2;1710;2.63157894736842;-0.9526277;0.9499994;-0.9109954;0.9776076;0.7070663;2.342649;0.6800579;2.315149;
637951270617684379;455.4355;29;0;4.5;0.1;2.2;2499;1.80072028811525;1.083289;1.691013;1.061017;1.677459;-0.9526277;0.9499994;-0.9109954;0.9776076;
637951270634678252;457.1348;29;0;4.5;0.1;2.2;1699;2.64861683343143;-1.083289;1.691012;-1.080908;1.679049;1.083289;1.691013;1.061017;1.677459;
637951270648671442;458.5341;29;0;4.5;0.1;2.2;1399;3.21658327376698;0.9526281;0.9500003;0.929565;0.9901788;-1.083289;1.691012;-1.080908;1.679049;
637951270667665771;460.4335;29;0;4.5;0.1;2.2;1899;2.3696682464455;-0.7070671;2.342648;-0.6798905;2.329501;0.9526281;0.9500003;0.929565;0.9901788;
637951270693651696;463.0322;29;0;4.5;0.1;2.2;2599;1.73143516737207;0.3762226;0.4663382;0.3659361;0.4983649;-0.7070671;2.342648;-0.6798905;2.329501;
637951272131373561;606.8036;29;1;3;0.2;1.4;1910;1.57068062827225;-0.2394138;0.8422151;-0.2318713;0.9065384;0;2.2;0.01362426;2.159794;
637951272169302211;610.5969;29;1;3;0.2;1.4;3793;0.79093066174532;0.4499513;2.036231;0.4190707;1.99698;-0.2394138;0.8422151;-0.2318713;0.9065384;
637951272202289735;613.8952;29;1;3;0.2;1.4;3298;0.909642207398423;-0.6062176;1.15;-0.5838124;1.173772;0.4499513;2.036231;0.4190707;1.99698;
637951272225274976;616.1941;29;1;3;0.2;1.4;2299;1.30491518051327;0.6893654;1.621554;0.6464602;1.607545;-0.6062176;1.15;-0.5838124;1.173772;
637951272244269303;618.0933;29;1;3;0.2;1.4;1899;1.57977883096367;-0.6893655;1.621553;-0.6697951;1.62043;0.6893654;1.621554;0.6464602;1.607545;
637951272264253867;620.0924;29;1;3;0.2;1.4;1999;1.50075037518759;0.6062179;1.15;0.5633174;1.170589;-0.6893655;1.621553;-0.6697951;1.62043;
637951272284358443;622.1028;29;1;3;0.2;1.4;2010;1.49253731343284;-0.4499517;2.036231;-0.4196668;2.023742;0.6062179;1.15;0.5633174;1.170589;
637951272301345668;623.8016;29;1;3;0.2;1.4;1699;1.76574455562095;0.2394144;0.8422153;0.2139681;0.9182297;-0.4499517;2.036231;-0.4196668;2.023742;
637951272333334147;627.0003;29;1;1.5;1.1;2;1699;0.882872277810477;-0.3420197;0.5603072;-0.3645808;0.9544222;0;2.5;0.01462954;2.305209;
637951272347327337;628.3998;29;1;1.5;1.1;2;1399;1.07219442458899;0.6427875;2.266045;0.4966772;2.084423;-0.3420197;0.5603072;-0.3645808;0.9544222;
637951272360330303;629.6991;29;1;1.5;1.1;2;1299;1.15473441108545;-0.8660251;0.9999995;-0.7336827;1.317602;0.6427875;2.266045;0.4966772;2.084423;
637951272375313718;631.1985;29;1;1.5;1.1;2;1499;1.00066711140761;0.9848077;1.673648;0.7076353;1.722846;-0.8660251;0.9999995;-0.7336827;1.317602;
637951272388306682;632.4977;29;1;1.5;1.1;2;1299;1.15473441108545;-0.9848078;1.673648;-0.7932005;1.701546;0.9848077;1.673648;0.7076353;1.722846;
637951272401309649;633.7971;29;1;1.5;1.1;2;1299;1.15473441108545;0.8660256;1;0.7166226;1.260598;-0.9848078;1.673648;-0.7932005;1.701546;
637951272415302837;635.1966;29;1;1.5;1.1;2;1399;1.07219442458899;-0.6427882;2.266044;-0.5161636;2.231669;0.8660256;1;0.7166226;1.260598;
637951272429406053;636.6069;29;1;1.5;1.1;2;1410;1.06382978723404;0.3420205;0.5603075;0.1969067;0.9748833;-0.6427882;2.266044;-0.5161636;2.231669;
637951272464394030;640.1055;29;1;2;0.6;1.8;2199;0.909504320145521;-0.3078177;0.6542765;-0.3128997;0.7487959;0;2.4;-0.04878256;2.329665;
637951272488489527;642.5152;29;1;2;0.6;1.8;2410;0.829875518672199;0.5785087;2.18944;0.4747863;2.095319;-0.3078177;0.6542765;-0.3128997;0.7487959;
637951272506483626;644.3145;29;1;2;0.6;1.8;1799;1.11172873818788;-0.7794226;1.05;-0.7187878;1.184181;0.5785087;2.18944;0.4747863;2.095319;
637951272519476589;645.6138;29;1;2;0.6;1.8;1299;1.53964588144727;0.8863269;1.656283;0.6971389;1.665071;-0.7794226;1.05;-0.7187878;1.184181;
637951272534470008;647.1133;29;1;2;0.6;1.8;1500;1.33333333333333;-0.8863271;1.656283;-0.7429407;1.627788;0.8863269;1.656283;0.6971389;1.665071;
637951272547462972;648.4127;29;1;2;0.6;1.8;1299;1.53964588144727;0.779423;1.05;0.656498;1.166524;-0.8863271;1.656283;-0.7429407;1.627788;
637951272564506856;650.1172;29;1;2;0.6;1.8;1705;1.17302052785924;-0.5785094;2.18944;-0.465981;2.090147;0.779423;1.05;0.656498;1.166524;
637951272590442773;652.7105;29;1;2;0.6;1.8;2593;0.771307365985345;0.3078185;0.6542768;0.2473268;0.8062987;-0.5785094;2.18944;-0.465981;2.090147;
637951272636424709;657.3085;29;1;4.5;0.1;2.2;2399;1.87578157565652;-0.3762217;0.4663379;-0.3422955;0.469202;0;2.6;-0.004665235;2.562991;
637951272656524873;659.3188;29;1;4.5;0.1;2.2;2010;2.23880597014925;0.7070663;2.342649;0.6738085;2.334496;-0.3762217;0.4663379;-0.3422955;0.469202;
637951272676513715;661.3176;29;1;4.5;0.1;2.2;1999;2.25112556278139;-0.9526277;0.9499994;-0.9239507;0.9465039;0.7070663;2.342649;0.6738085;2.334496;
637951272709551245;664.6213;29;1;4.5;0.1;2.2;3304;1.36198547215496;1.083289;1.691013;1.070994;1.681038;-0.9526277;0.9499994;-0.9239507;0.9465039;
637951272734486933;667.1151;29;1;4.5;0.1;2.2;2494;1.80433039294306;-1.083289;1.691012;-1.069314;1.686129;1.083289;1.691013;1.070994;1.681038;
637951272752481035;668.9141;29;1;4.5;0.1;2.2;1799;2.50138966092273;0.9526281;0.9500003;0.9083637;0.9601818;-1.083289;1.691012;-1.069314;1.686129;
637951272775466274;671.2131;29;1;4.5;0.1;2.2;2299;1.9573727707699;-0.7070671;2.342648;-0.7128041;2.344432;0.9526281;0.9500003;0.9083637;0.9601818;
637951272797571317;673.4232;29;1;4.5;0.1;2.2;2210;2.03619909502262;0.3762226;0.4663382;0.3707315;0.4571861;-0.7070671;2.342648;-0.7128041;2.344432;
637951272832559292;676.9219;29;1;4;0.1;1.4;1600;2.5;-0.2394138;0.8422151;-0.2433488;0.8497936;0;2.2;-0.01270332;2.182373;
637951272856544761;679.3203;29;1;4;0.1;1.4;2398;1.66805671392827;0.4499513;2.036231;0.4190789;2.020176;-0.2394138;0.8422151;-0.2433488;0.8497936;
637951272881500449;681.8162;29;1;4;0.1;1.4;2496;1.6025641025641;-0.6062176;1.15;-0.6208934;1.165831;0.4499513;2.036231;0.4190789;2.020176;
637951272915508204;685.2177;29;1;4;0.1;1.4;3401;1.17612466921494;0.6893654;1.621554;0.6602286;1.614031;-0.6062176;1.15;-0.6208934;1.165831;
637951272937552991;687.4216;29;1;4;0.1;1.4;2204;1.81488203266788;-0.6893655;1.621553;-0.6879689;1.644344;0.6893654;1.621554;0.6602286;1.614031;
637951272954612631;689.1273;29;1;4;0.1;1.4;1706;2.34466588511137;0.6062179;1.15;0.5588252;1.159509;-0.6893655;1.621553;-0.6879689;1.644344;
637951272976592493;691.3256;29;1;4;0.1;1.4;2198;1.81983621474067;-0.4499517;2.036231;-0.4351162;2.030462;0.6062179;1.15;0.5588252;1.159509;
637951272995592119;693.2251;29;1;4;0.1;1.4;1899;2.10637177461822;0.2394144;0.8422153;0.2599541;0.8506585;-0.4499517;2.036231;-0.4351162;2.030462;
637951273031570132;696.8234;29;1;2.5;0.3;1.4;1699;1.47145379635079;-0.2394138;0.8422151;-0.2307621;0.9675905;0;2.2;-0.01189772;2.181616;
637951273049561661;698.6224;29;1;2.5;0.3;1.4;1799;1.38966092273485;0.4499513;2.036231;0.3969034;2.002871;-0.2394138;0.8422151;-0.2307621;0.9675905;
637951273065671556;700.2331;29;1;2.5;0.3;1.4;1611;1.55183116076971;-0.6062176;1.15;-0.5923694;1.266276;0.4499513;2.036231;0.3969034;2.002871;
637951273096647938;703.3317;29;1;2.5;0.3;1.4;3099;0.806711842529848;0.6893654;1.621554;0.620464;1.640983;-0.6062176;1.15;-0.5923694;1.266276;
637951273117642723;705.4307;29;1;2.5;0.3;1.4;2099;1.19104335397808;-0.6893655;1.621553;-0.6548035;1.628259;0.6893654;1.621554;0.620464;1.640983;
637951273135636824;707.2297;29;1;2.5;0.3;1.4;1799;1.38966092273485;0.6062179;1.15;0.5940377;1.197092;-0.6893655;1.621553;-0.6548035;1.628259;
637951273152630710;708.929;29;1;2.5;0.3;1.4;1699;1.47145379635079;-0.4499517;2.036231;-0.3873634;1.954786;0.6062179;1.15;0.5940377;1.197092;
637951273171615022;710.8279;29;1;2.5;0.3;1.4;1899;1.31648235913639;0.2394144;0.8422153;0.2394401;0.8793465;-0.4499517;2.036231;-0.3873634;1.954786;
637951273206713031;714.3377;29;1;3.5;0.2;2;1911;1.83150183150183;-0.3420197;0.5603072;-0.338789;0.628553;0;2.5;-0.002754809;2.487115;
637951273228698039;716.5364;29;1;3.5;0.2;2;2199;1.59163256025466;0.6427875;2.266045;0.5931358;2.252284;-0.3420197;0.5603072;-0.338789;0.628553;
637951273244691689;718.1356;29;1;3.5;0.2;2;1599;2.18886804252658;-0.8660251;0.9999995;-0.8276264;1.043783;0.6427875;2.266045;0.5931358;2.252284;
637951273257684654;719.4351;29;1;3.5;0.2;2;1299;2.69438029253272;0.9848077;1.673648;0.9873596;1.699322;-0.8660251;0.9999995;-0.8276264;1.043783;
637951273285791066;722.2451;29;1;3.5;0.2;2;2810;1.24555160142349;-0.9848078;1.673648;-0.9865292;1.673884;0.9848077;1.673648;0.9873596;1.699322;
637951273315767897;725.2436;29;1;3.5;0.2;2;2999;1.16705568522841;0.8660256;1;0.8074911;1.035925;-0.9848078;1.673648;-0.9865292;1.673884;
637951273343764279;728.0425;29;1;3.5;0.2;2;2799;1.25044658806717;-0.6427882;2.266044;-0.6181835;2.281967;0.8660256;1;0.8074911;1.035925;
637951273363804019;730.0466;29;1;3.5;0.2;2;2004;1.74650698602794;0.3420205;0.5603075;0.3607832;0.6320254;-0.6427882;2.266044;-0.6181835;2.281967;
637951274279301771;821.5872;29;2;1.5;1.1;2;999;1.5015015015015;-0.3420197;0.5603072;-0.2955507;0.9371431;0;2.5;-0.003014745;2.310739;
637951274290211925;822.687;29;2;1.5;1.1;2;1100;1.36363636363636;0.6427875;2.266045;0.372665;2.0717;-0.3420197;0.5603072;-0.2955507;0.9371431;
637951274300211349;823.6868;29;2;1.5;1.1;2;1000;1.5;-0.8660251;0.9999995;-0.750376;1.173282;0.6427875;2.266045;0.372665;2.0717;
637951274310211506;824.6865;29;2;1.5;1.1;2;1000;1.5;0.9848077;1.673648;0.7598624;1.658478;-0.8660251;0.9999995;-0.750376;1.173282;
637951274320242369;825.6902;29;2;1.5;1.1;2;1004;1.49402390438247;-0.9848078;1.673648;-0.7289217;1.612416;0.9848077;1.673648;0.7598624;1.658478;
637951274329191108;826.5851;29;2;1.5;1.1;2;895;1.67597765363128;0.8660256;1;0.6168909;1.332105;-0.9848078;1.673648;-0.7289217;1.612416;
637951274338181498;827.4844;29;2;1.5;1.1;2;899;1.66852057842047;-0.6427882;2.266044;-0.4849373;2.237929;0.8660256;1;0.6168909;1.332105;
637951274348190961;828.4844;29;2;1.5;1.1;2;1000;1.5;0.3420205;0.5603075;0.1713976;0.8951771;-0.6427882;2.266044;-0.4849373;2.237929;
637951274380171315;831.6827;29;2;4.5;0.1;2.2;1685;2.67062314540059;-0.3762217;0.4663379;-0.3649942;0.5073812;0;2.6;0.008565337;2.614719;
637951274392164051;832.8821;29;2;4.5;0.1;2.2;1199;3.75312760633862;0.7070663;2.342649;0.6936297;2.346435;-0.3762217;0.4663379;-0.3649942;0.5073812;
637951274406207249;834.2867;29;2;4.5;0.1;2.2;1405;3.20284697508897;-0.9526277;0.9499994;-0.9166246;0.9619712;0.7070663;2.342649;0.6936297;2.346435;
637951274419260227;835.5919;29;2;4.5;0.1;2.2;1305;3.44827586206897;1.083289;1.691013;1.06821;1.650836;-0.9526277;0.9499994;-0.9166246;0.9619712;
637951274448166815;838.4827;29;2;4.5;0.1;2.2;2891;1.55655482531996;-1.083289;1.691012;-1.079037;1.682079;1.083289;1.691013;1.06821;1.650836;
637951274469241622;840.5898;29;2;4.5;0.1;2.2;2107;2.13573801613669;0.9526281;0.9500003;0.9467515;0.9620864;-1.083289;1.691012;-1.079037;1.682079;
637951274484285053;842.0944;29;2;4.5;0.1;2.2;1505;2.99003322259136;-0.7070671;2.342648;-0.6936728;2.334653;0.9526281;0.9500003;0.9467515;0.9620864;
637951274502219142;843.8881;29;2;4.5;0.1;2.2;1794;2.50836120401338;0.3762226;0.4663382;0.3601069;0.4516683;-0.7070671;2.342648;-0.6936728;2.334653;
637951274532215983;846.887;29;2;3.5;0.2;2;1699;2.06003531489111;-0.3420197;0.5603072;-0.3648599;0.5788618;0;2.5;-0.03495451;2.46849;
637951274546209170;848.2866;29;2;3.5;0.2;2;1400;2.5;0.6427875;2.266045;0.6513636;2.306043;-0.3420197;0.5603072;-0.3648599;0.5788618;
637951274562252824;849.891;29;2;3.5;0.2;2;1604;2.18204488778055;-0.8660251;0.9999995;-0.8785024;0.9940819;0.6427875;2.266045;0.6513636;2.306043;
637951274575305804;851.1962;29;2;3.5;0.2;2;1305;2.68199233716475;0.9848077;1.673648;1.036746;1.684937;-0.8660251;0.9999995;-0.8785024;0.9940819;
637951274588298768;852.4954;29;2;3.5;0.2;2;1299;2.69438029253272;-0.9848078;1.673648;-1.017737;1.647211;0.9848077;1.673648;1.036746;1.684937;
637951274599291275;853.5948;29;2;3.5;0.2;2;1099;3.18471337579618;0.8660256;1;0.7880533;0.9555237;-0.9848078;1.673648;-1.017737;1.647211;
637951274619275828;855.5936;29;2;3.5;0.2;2;1999;1.75087543771886;-0.6427882;2.266044;-0.6187685;2.259575;0.8660256;1;0.7880533;0.9555237;
637951274634274774;857.0931;29;2;3.5;0.2;2;1500;2.33333333333333;0.3420205;0.5603075;0.3331602;0.59785;-0.6427882;2.266044;-0.6187685;2.259575;
637951274656266943;859.2926;29;2;2.5;0.3;1.4;1095;2.28310502283105;-0.2394138;0.8422151;-0.2513167;0.9163369;0;2.2;-0.018951;2.179607;
637951274666269232;860.2927;29;2;2.5;0.3;1.4;1000;2.5;0.4499513;2.036231;0.4852887;2.011614;-0.2394138;0.8422151;-0.2513167;0.9163369;
637951274687365626;862.4021;29;2;2.5;0.3;1.4;2109;1.18539592223803;-0.6062176;1.15;-0.5572426;1.184555;0.4499513;2.036231;0.4852887;2.011614;
637951274698362376;863.5016;29;2;2.5;0.3;1.4;1100;2.27272727272727;0.6893654;1.621554;0.6445858;1.623172;-0.6062176;1.15;-0.5572426;1.184555;
637951274709354880;864.6009;29;2;2.5;0.3;1.4;1099;2.27479526842584;-0.6893655;1.621553;-0.6547135;1.615162;0.6893654;1.621554;0.6445858;1.623172;
637951274719347160;865.6003;29;2;2.5;0.3;1.4;999;2.5025025025025;0.6062179;1.15;0.5703048;1.179215;-0.6893655;1.621553;-0.6547135;1.615162;
637951274729399450;866.605;29;2;2.5;0.3;1.4;1005;2.48756218905473;-0.4499517;2.036231;-0.3526954;1.994085;0.6062179;1.15;0.5703048;1.179215;
637951274739331715;867.5992;29;2;2.5;0.3;1.4;994;2.51509054325956;0.2394144;0.8422153;0.2362776;0.9165074;-0.4499517;2.036231;-0.3526954;1.994085;
637951274768318324;870.4979;29;2;2;0.6;1.8;1099;1.81983621474067;-0.3078177;0.6542765;-0.2526304;0.6958119;0;2.4;-0.02004956;2.388069;
637951274778320609;871.4977;29;2;2;0.6;1.8;1000;2;0.5785087;2.18944;0.6701842;2.280567;-0.3078177;0.6542765;-0.2526304;0.6958119;
637951274789313114;872.5975;29;2;2;0.6;1.8;1100;1.81818181818182;-0.7794226;1.05;-0.6755216;1.249759;0.5785087;2.18944;0.6701842;2.280567;
637951274798305162;873.4966;29;2;2;0.6;1.8;899;2.22469410456062;0.8863269;1.656283;0.8580967;1.661969;-0.7794226;1.05;-0.6755216;1.249759;
637951274807397234;874.4058;29;2;2;0.6;1.8;909;2.2002200220022;-0.8863271;1.656283;-0.9607788;1.53992;0.8863269;1.656283;0.8580967;1.661969;
637951274816419292;875.3069;29;2;2;0.6;1.8;901;2.21975582685905;0.779423;1.05;0.7585143;1.282865;-0.8863271;1.656283;-0.9607788;1.53992;
637951274827411796;876.4065;29;2;2;0.6;1.8;1100;1.81818181818182;-0.5785094;2.18944;-0.5482516;2.10359;0.779423;1.05;0.7585143;1.282865;
637951274837404077;877.4059;29;2;2;0.6;1.8;999;2.002002002002;0.3078185;0.6542768;0.261486;0.9209715;-0.5785094;2.18944;-0.5482516;2.10359;
637951274888375697;882.5037;29;2;4;0.1;1.4;1899;2.10637177461822;-0.2394138;0.8422151;-0.226568;0.8373004;0;2.2;-0.01105628;2.204711;
637951274904489373;884.1141;29;2;4;0.1;1.4;1610;2.48447204968944;0.4499513;2.036231;0.439058;2.019263;-0.2394138;0.8422151;-0.226568;0.8373004;
637951274917482330;885.4136;29;2;4;0.1;1.4;1299;3.07929176289453;-0.6062176;1.15;-0.5833763;1.134285;0.4499513;2.036231;0.439058;2.019263;
637951274942468029;887.9122;29;2;4;0.1;1.4;2499;1.60064025610244;0.6893654;1.621554;0.7307175;1.643732;-0.6062176;1.15;-0.5833763;1.134285;
637951274957461442;889.4116;29;2;4;0.1;1.4;1499;2.66844563042028;-0.6893655;1.621553;-0.6704937;1.614734;0.6893654;1.621554;0.7307175;1.643732;
637951274970454411;890.711;29;2;4;0.1;1.4;1299;3.07929176289453;0.6062179;1.15;0.6261854;1.187383;-0.6893655;1.621553;-0.6704937;1.614734;
637951274984450621;892.1104;29;2;4;0.1;1.4;1399;2.85918513223731;-0.4499517;2.036231;-0.4438845;2.030811;0.6062179;1.15;0.6261854;1.187383;
637951275015436150;895.209;29;2;4;0.1;1.4;3099;1.29073894804776;0.2394144;0.8422153;0.2444424;0.843159;-0.4499517;2.036231;-0.4438845;2.030811;
637951275052522574;898.9181;29;2;3;0.2;1.4;1400;2.14285714285714;-0.2394138;0.8422151;-0.2542797;0.8412043;0;2.2;-0.02095992;2.252991;
637951275065516713;900.2177;29;2;3;0.2;1.4;1300;2.30769230769231;0.4499513;2.036231;0.4282211;2.02372;-0.2394138;0.8422151;-0.2542797;0.8412043;
637951275077519496;901.4172;29;2;3;0.2;1.4;1200;2.5;-0.6062176;1.15;-0.648227;1.167799;0.4499513;2.036231;0.4282211;2.02372;
637951275089512230;902.6168;29;2;3;0.2;1.4;1200;2.5;0.6893654;1.621554;0.6588981;1.635614;-0.6062176;1.15;-0.648227;1.167799;
637951275099554518;903.621;29;2;3;0.2;1.4;1004;2.98804780876494;-0.6893655;1.621553;-0.6673846;1.619489;0.6893654;1.621554;0.6588981;1.635614;
637951275110507017;904.7159;29;2;3;0.2;1.4;1095;2.73972602739726;0.6062179;1.15;0.5704922;1.190148;-0.6893655;1.621553;-0.6673846;1.619489;
637951275123539990;906.0201;29;2;3;0.2;1.4;1304;2.30061349693252;-0.4499517;2.036231;-0.4031392;2.030475;0.6062179;1.15;0.5704922;1.190148;
637951275132482025;906.9142;29;2;3;0.2;1.4;894;3.35570469798658;0.2394144;0.8422153;0.2498044;0.9126097;-0.4499517;2.036231;-0.4031392;2.030475;
637951275973878578;991.0533;29;3;3;0.2;1.4;1300;2.30769230769231;-0.2394138;0.8422151;-0.2378725;0.9344802;0;2.2;-0.02256485;2.211308;
637951275984981111;992.1636;29;3;3;0.2;1.4;1110;2.7027027027027;0.4499513;2.036231;0.3830337;1.993559;-0.2394138;0.8422151;-0.2378725;0.9344802;
637951275995983618;993.2632;29;3;3;0.2;1.4;1100;2.72727272727273;-0.6062176;1.15;-0.5926784;1.17546;0.4499513;2.036231;0.3830337;1.993559;
637951276005975899;994.2629;29;3;3;0.2;1.4;1000;3;0.6893654;1.621554;0.6803887;1.612348;-0.6062176;1.15;-0.5926784;1.17546;
637951276015968172;995.2623;29;3;3;0.2;1.4;999;3.003003003003;-0.6893655;1.621553;-0.6854945;1.613796;0.6893654;1.621554;0.6803887;1.612348;
637951276025970459;996.2619;29;3;3;0.2;1.4;1000;3;0.6062179;1.15;0.6056613;1.176245;-0.6893655;1.621553;-0.6854945;1.613796;
637951276035962731;997.2615;29;3;3;0.2;1.4;1000;3;-0.4499517;2.036231;-0.4117126;2.018476;0.6062179;1.15;0.6056613;1.176245;
637951276067940016;1000.46;29;3;3;0.2;1.4;3198;0.938086303939963;0.2394144;0.8422153;0.2307621;0.8202367;-0.4499517;2.036231;-0.4117126;2.018476;
637951276108928893;1004.558;29;3;3.5;0.2;2;2599;1.34667179684494;-0.3420197;0.5603072;-0.3332607;0.5719545;0;2.5;-0.02488935;2.439814;
637951276123034644;1005.969;29;3;3.5;0.2;2;1411;2.48051027639972;0.6427875;2.266045;0.5925434;2.210813;-0.3420197;0.5603072;-0.3332607;0.5719545;
637951276136027608;1007.268;29;3;3.5;0.2;2;1299;2.69438029253272;-0.8660251;0.9999995;-0.8344862;0.9883574;0.6427875;2.266045;0.5925434;2.210813;
637951276158071083;1009.472;29;3;3.5;0.2;2;2204;1.58802177858439;0.9848077;1.673648;0.9224989;1.670879;-0.8660251;0.9999995;-0.8344862;0.9883574;
637951276180002694;1011.666;29;3;3.5;0.2;2;2194;1.59525979945305;-0.9848078;1.673648;-0.9770919;1.716694;0.9848077;1.673648;0.9224989;1.670879;
637951276192996068;1012.965;29;3;3.5;0.2;2;1300;2.69230769230769;0.8660256;1;0.833865;1.032661;-0.9848078;1.673648;-0.9770919;1.716694;
637951276215992357;1015.264;29;3;3.5;0.2;2;2299;1.52240104393214;-0.6427882;2.266044;-0.6280015;2.318831;0.8660256;1;0.833865;1.032661;
637951276232086025;1016.874;29;3;3.5;0.2;2;1610;2.17391304347826;0.3420205;0.5603075;0.2971173;0.5897888;-0.6427882;2.266044;-0.6280015;2.318831;
637951276251080355;1018.773;29;3;1.5;1.1;2;899;1.66852057842047;-0.3420197;0.5603072;-0.228074;0.9476912;0;2.5;0.006440531;2.324071;
637951276260132420;1019.678;29;3;1.5;1.1;2;905;1.65745856353591;0.6427875;2.266045;0.4454107;2.213741;-0.3420197;0.5603072;-0.228074;0.9476912;
637951276269074459;1020.573;29;3;1.5;1.1;2;895;1.67597765363128;-0.8660251;0.9999995;-0.7176104;1.178982;0.6427875;2.266045;0.4454107;2.213741;
637951276278066509;1021.472;29;3;1.5;1.1;2;899;1.66852057842047;0.9848077;1.673648;0.6464737;1.643175;-0.8660251;0.9999995;-0.7176104;1.178982;
637951276294060156;1023.071;29;3;1.5;1.1;2;1599;0.938086303939963;-0.9848078;1.673648;-0.6111617;1.630218;0.9848077;1.673648;0.6464737;1.643175;
637951276304062443;1024.071;29;3;1.5;1.1;2;1000;1.5;0.8660256;1;0.6416653;1.25261;-0.9848078;1.673648;-0.6111617;1.630218;
637951276313054487;1024.971;29;3;1.5;1.1;2;900;1.66666666666667;-0.6427882;2.266044;-0.4792292;2.208053;0.8660256;1;0.6416653;1.25261;
637951276323156784;1025.981;29;3;1.5;1.1;2;1010;1.48514851485149;0.3420205;0.5603075;0.1072465;0.9538604;-0.6427882;2.266044;-0.4792292;2.208053;
637951276344151579;1028.081;29;3;2.5;0.3;1.4;1000;2.5;-0.2394138;0.8422151;-0.2650408;0.8932468;0;2.2;-0.08764245;2.152753;
637951276362195689;1029.885;29;3;2.5;0.3;1.4;1804;1.38580931263858;0.4499513;2.036231;0.3624506;2.002529;-0.2394138;0.8422151;-0.2650408;0.8932468;
637951276372137958;1030.879;29;3;2.5;0.3;1.4;994;2.51509054325956;-0.6062176;1.15;-0.6582147;1.221568;0.4499513;2.036231;0.3624506;2.002529;
637951276385130920;1032.178;29;3;2.5;0.3;1.4;1300;1.92307692307692;0.6893654;1.621554;0.5761787;1.642473;-0.6062176;1.15;-0.6582147;1.221568;
637951276395123196;1033.178;29;3;2.5;0.3;1.4;1000;2.5;-0.6893655;1.621553;-0.6489165;1.648196;0.6893654;1.621554;0.5761787;1.642473;
637951276405125479;1034.178;29;3;2.5;0.3;1.4;999;2.5025025025025;0.6062179;1.15;0.5717478;1.242975;-0.6893655;1.621553;-0.6489165;1.648196;
637951276415117758;1035.177;29;3;2.5;0.3;1.4;999;2.5025025025025;-0.4499517;2.036231;-0.4498359;2.112142;0.6062179;1.15;0.5717478;1.242975;
637951276424119804;1036.077;29;3;2.5;0.3;1.4;900;2.77777777777778;0.2394144;0.8422153;0.2423453;0.9502993;-0.4499517;2.036231;-0.4498359;2.112142;
637951276461258277;1039.791;29;3;4;0.1;1.4;1615;2.47678018575851;-0.2394138;0.8422151;-0.2479313;0.8599882;0;2.2;-0.01600918;2.19001;
637951276482203055;1041.885;29;3;4;0.1;1.4;2094;1.91021967526266;0.4499513;2.036231;0.4524413;2.027738;-0.2394138;0.8422151;-0.2479313;0.8599882;
637951276505188200;1044.184;29;3;4;0.1;1.4;2299;1.73988690735102;-0.6062176;1.15;-0.5923322;1.125447;0.4499513;2.036231;0.4524413;2.027738;
637951276536510648;1047.323;29;3;4;0.1;1.4;3139;1.27429117553361;0.6893654;1.621554;0.6492833;1.65145;-0.6062176;1.15;-0.5923322;1.125447;
637951276565267202;1050.192;29;3;4;0.1;1.4;2869;1.39421401185082;-0.6893655;1.621553;-0.64872;1.650671;0.6893654;1.621554;0.6492833;1.65145;
637951276583241297;1051.989;29;3;4;0.1;1.4;1796;2.2271714922049;0.6062179;1.15;0.5984108;1.162545;-0.6893655;1.621553;-0.64872;1.650671;
637951276597254495;1053.391;29;3;4;0.1;1.4;1402;2.85306704707561;-0.4499517;2.036231;-0.4764557;2.042764;0.6062179;1.15;0.5984108;1.162545;
637951276610247457;1054.69;29;3;4;0.1;1.4;1300;3.07692307692308;0.2394144;0.8422153;0.2439011;0.8706614;-0.4499517;2.036231;-0.4764557;2.042764;
637951276656347969;1059.3;29;3;4.5;0.1;2.2;2406;1.87032418952618;-0.3762217;0.4663379;-0.3510995;0.4507402;0;2.6;0.004241634;2.588028;
637951276671331384;1060.798;29;3;4.5;0.1;2.2;1499;3.00200133422282;0.7070663;2.342649;0.6929765;2.326805;-0.3762217;0.4663379;-0.3510995;0.4507402;
637951276693326399;1062.997;29;3;4.5;0.1;2.2;2199;2.04638472032742;-0.9526277;0.9499994;-0.9246153;0.9326589;0.7070663;2.342649;0.6929765;2.326805;
637951276711320502;1064.797;29;3;4.5;0.1;2.2;1799;2.50138966092273;1.083289;1.691013;1.053632;1.70194;-0.9526277;0.9499994;-0.9246153;0.9326589;
637951276727314150;1066.396;29;3;4.5;0.1;2.2;1599;2.81425891181989;-1.083289;1.691012;-1.055345;1.698385;1.083289;1.691013;1.053632;1.70194;
637951276739296884;1067.595;29;3;4.5;0.1;2.2;1199;3.75312760633862;0.9526281;0.9500003;0.9301207;0.9910859;-1.083289;1.691012;-1.055345;1.698385;
637951276756300762;1069.294;29;3;4.5;0.1;2.2;1699;2.64861683343143;-0.7070671;2.342648;-0.6936709;2.332673;0.9526281;0.9500003;0.9301207;0.9910859;
637951276774334867;1071.099;29;3;4.5;0.1;2.2;1805;2.49307479224377;0.3762226;0.4663382;0.3650911;0.5129077;-0.7070671;2.342648;-0.6936709;2.332673;
637951276793329198;1072.998;29;3;2;0.6;1.8;1005;1.99004975124378;-0.3078177;0.6542765;-0.2201499;0.9304047;0;2.4;0.001399016;2.260807;
637951276801276177;1073.793;29;3;2;0.6;1.8;794;2.51889168765743;0.5785087;2.18944;0.4469885;2.165044;-0.3078177;0.6542765;-0.2201499;0.9304047;
637951276810380155;1074.703;29;3;2;0.6;1.8;911;2.1953896816685;-0.7794226;1.05;-0.739039;1.292027;0.5785087;2.18944;0.4469885;2.165044;
637951276819382206;1075.603;29;3;2;0.6;1.8;900;2.22222222222222;0.8863269;1.656283;0.7868453;1.637395;-0.7794226;1.05;-0.739039;1.292027;
637951276828374101;1076.503;29;3;2;0.6;1.8;900;2.22222222222222;-0.8863271;1.656283;-0.9945216;1.74603;0.8863269;1.656283;0.7868453;1.637395;
637951276848367562;1078.501;29;3;2;0.6;1.8;1999;1.00050025012506;0.779423;1.05;0.6569837;1.17698;-0.8863271;1.656283;-0.9945216;1.74603;
637951276872350407;1080.9;29;3;2;0.6;1.8;2399;0.833680700291788;-0.5785094;2.18944;-0.540858;2.085541;0.779423;1.05;0.6569837;1.17698;
637951276881342536;1081.8;29;3;2;0.6;1.8;899;2.22469410456062;0.3078185;0.6542768;0.2267175;0.9256058;-0.5785094;2.18944;-0.540858;2.085541;
637951278191742906;1212.839;29;4;2;0.6;1.8;1100;1.81818181818182;-0.3078177;0.6542765;-0.4037586;0.8462317;0;2.4;-0.01089136;2.257876;
637951278200734955;1213.738;29;4;2;0.6;1.8;900;2.22222222222222;0.5785087;2.18944;0.5190828;2.14202;-0.3078177;0.6542765;-0.4037586;0.8462317;
637951278220839540;1215.749;29;4;2;0.6;1.8;2010;0.995024875621891;-0.7794226;1.05;-0.6898825;1.132387;0.5785087;2.18944;0.5190828;2.14202;
637951278232832272;1216.948;29;4;2;0.6;1.8;1199;1.66805671392827;0.8863269;1.656283;0.7922733;1.637578;-0.7794226;1.05;-0.6898825;1.132387;
637951278243832700;1218.048;29;4;2;0.6;1.8;1100;1.81818181818182;-0.8863271;1.656283;-0.6720747;1.6026;0.8863269;1.656283;0.7922733;1.637578;
637951278256825669;1219.347;29;4;2;0.6;1.8;1299;1.53964588144727;0.779423;1.05;0.6013091;1.159932;-0.8863271;1.656283;-0.6720747;1.6026;
637951278268818397;1220.546;29;4;2;0.6;1.8;1199;1.66805671392827;-0.5785094;2.18944;-0.4460557;2.092633;0.779423;1.05;0.6013091;1.159932;
637951278278820678;1221.546;29;4;2;0.6;1.8;1000;2;0.3078185;0.6542768;0.2314697;0.8718501;-0.5785094;2.18944;-0.4460557;2.092633;
637951278295804548;1223.245;29;4;1.5;1.1;2;900;1.66666666666667;-0.3420197;0.5603072;-0.2682838;0.9385971;0;2.5;-0.03271458;2.222094;
637951278303806376;1224.045;29;4;1.5;1.1;2;800;1.875;0.6427875;2.266045;0.3512385;2.086166;-0.3420197;0.5603072;-0.2682838;0.9385971;
637951278312798424;1224.944;29;4;1.5;1.1;2;899;1.66852057842047;-0.8660251;0.9999995;-0.8349586;1.281002;0.6427875;2.266045;0.3512385;2.086166;
637951278321790477;1225.844;29;4;1.5;1.1;2;900;1.66666666666667;0.9848077;1.673648;0.6631837;1.553388;-0.8660251;0.9999995;-0.8349586;1.281002;
637951278328792070;1226.544;29;4;1.5;1.1;2;700;2.14285714285714;-0.9848078;1.673648;-0.7843157;1.598057;0.9848077;1.673648;0.6631837;1.553388;
637951278336783896;1227.343;29;4;1.5;1.1;2;800;1.875;0.8660256;1;0.6315809;1.277322;-0.9848078;1.673648;-0.7843157;1.598057;
637951278343785493;1228.043;29;4;1.5;1.1;2;700;2.14285714285714;-0.6427882;2.266044;-0.3830349;1.945201;0.8660256;1;0.6315809;1.277322;
637951278359889162;1229.653;29;4;1.5;1.1;2;1610;0.93167701863354;0.3420205;0.5603075;0.2078974;0.9370979;-0.6427882;2.266044;-0.3830349;1.945201;
637951278380883950;1231.753;29;4;2.5;0.3;1.4;1200;2.08333333333333;-0.2394138;0.8422151;-0.2008963;0.9485482;0;2.2;-0.0202531;2.105047;
637951278393876909;1233.052;29;4;2.5;0.3;1.4;1299;1.92455735180908;0.4499513;2.036231;0.371646;1.988315;-0.2394138;0.8422151;-0.2008963;0.9485482;
637951278403869188;1234.051;29;4;2.5;0.3;1.4;1000;2.5;-0.6062176;1.15;-0.5473696;1.237795;0.4499513;2.036231;0.371646;1.988315;
637951278412901242;1234.954;29;4;2.5;0.3;1.4;903;2.76854928017719;0.6893654;1.621554;0.6563953;1.670559;-0.6062176;1.15;-0.5473696;1.237795;
637951278425854200;1236.25;29;4;2.5;0.3;1.4;1296;1.92901234567901;-0.6893655;1.621553;-0.6457738;1.586011;0.6893654;1.621554;0.6563953;1.670559;
637951278436856713;1237.35;29;4;2.5;0.3;1.4;1100;2.27272727272727;0.6062179;1.15;0.5694678;1.288584;-0.6893655;1.621553;-0.6457738;1.586011;
637951278446848988;1238.349;29;4;2.5;0.3;1.4;1000;2.5;-0.4499517;2.036231;-0.4067537;1.949988;0.6062179;1.15;0.5694678;1.288584;
637951278457841493;1239.449;29;4;2.5;0.3;1.4;1100;2.27272727272727;0.2394144;0.8422153;0.2427583;0.9460673;-0.4499517;2.036231;-0.4067537;1.949988;
637951278484217510;1242.094;29;4;4;0.1;1.4;1235;3.23886639676113;-0.2394138;0.8422151;-0.2277838;0.8060293;0;2.2;0.006877334;2.167895;
637951278493939725;1243.058;29;4;4;0.1;1.4;964;4.149377593361;0.4499513;2.036231;0.4111636;2.012966;-0.2394138;0.8422151;-0.2277838;0.8060293;
637951278504932229;1244.158;29;4;4;0.1;1.4;1099;3.63967242948135;-0.6062176;1.15;-0.5696342;1.168362;0.4499513;2.036231;0.4111636;2.012966;
637951278515924729;1245.257;29;4;4;0.1;1.4;1099;3.63967242948135;0.6893654;1.621554;0.6868079;1.621882;-0.6062176;1.15;-0.5696342;1.168362;
637951278546915995;1248.356;29;4;4;0.1;1.4;3099;1.29073894804776;-0.6893655;1.621553;-0.6988226;1.590223;0.6893654;1.621554;0.6868079;1.621882;
637951278562015432;1249.866;29;4;4;0.1;1.4;1511;2.64725347452019;0.6062179;1.15;0.5739539;1.161139;-0.6893655;1.621553;-0.6988226;1.590223;
637951278575008394;1251.166;29;4;4;0.1;1.4;1299;3.07929176289453;-0.4499517;2.036231;-0.4829499;2.024314;0.6062179;1.15;0.5739539;1.161139;
637951278588998316;1252.565;29;4;4;0.1;1.4;1399;2.85918513223731;0.2394144;0.8422153;0.2256096;0.8589139;-0.4499517;2.036231;-0.4829499;2.024314;
637951278627982185;1256.463;29;4;4.5;0.1;2.2;2399;1.87578157565652;-0.3762217;0.4663379;-0.3961534;0.5031005;0;2.6;-0.01755793;2.569409;
637951278651087450;1258.773;29;4;4.5;0.1;2.2;2310;1.94805194805195;0.7070663;2.342649;0.6982307;2.342742;-0.3762217;0.4663379;-0.3961534;0.5031005;
637951278679073830;1261.572;29;4;4.5;0.1;2.2;2799;1.60771704180064;-0.9526277;0.9499994;-0.9484798;0.9838997;0.7070663;2.342649;0.6982307;2.342742;
637951278693067020;1262.971;29;4;4.5;0.1;2.2;1400;3.21428571428571;1.083289;1.691013;1.056793;1.663073;-0.9526277;0.9499994;-0.9484798;0.9838997;
637951278707060210;1264.37;29;4;4.5;0.1;2.2;1399;3.21658327376698;-1.083289;1.691012;-1.067838;1.687825;1.083289;1.691013;1.056793;1.663073;
637951278736046819;1267.269;29;4;4.5;0.1;2.2;2899;1.55225939979303;0.9526281;0.9500003;0.9755179;0.9671091;-1.083289;1.691012;-1.067838;1.687825;
637951278751040238;1268.768;29;4;4.5;0.1;2.2;1499;3.00200133422282;-0.7070671;2.342648;-0.6994933;2.348241;0.9526281;0.9500003;0.9755179;0.9671091;
637951278768034118;1270.468;29;4;4.5;0.1;2.2;1700;2.64705882352941;0.3762226;0.4663382;0.3539681;0.5095171;-0.7070671;2.342648;-0.6994933;2.348241;
637951278801131658;1273.777;29;4;3;0.2;1.4;1510;1.98675496688742;-0.2394138;0.8422151;-0.2341737;0.9115822;0;2.2;-0.01957165;2.184685;
637951278811123936;1274.777;29;4;3;0.2;1.4;999;3.003003003003;0.4499513;2.036231;0.4325793;2.040834;-0.2394138;0.8422151;-0.2341737;0.9115822;
637951278824116904;1276.076;29;4;3;0.2;1.4;1299;2.3094688221709;-0.6062176;1.15;-0.5695829;1.185119;0.4499513;2.036231;0.4325793;2.040834;
637951278834109181;1277.076;29;4;3;0.2;1.4;999;3.003003003003;0.6893654;1.621554;0.7011292;1.602496;-0.6062176;1.15;-0.5695829;1.185119;
637951278847112143;1278.375;29;4;3;0.2;1.4;1300;2.30769230769231;-0.6893655;1.621553;-0.665014;1.584271;0.6893654;1.621554;0.7011292;1.602496;
637951278861100410;1279.775;29;4;3;0.2;1.4;1399;2.14438884917798;0.6062179;1.15;0.5526124;1.198183;-0.6893655;1.621553;-0.665014;1.584271;
637951278870093501;1280.674;29;4;3;0.2;1.4;900;3.33333333333333;-0.4499517;2.036231;-0.4493766;1.973787;0.6062179;1.15;0.5526124;1.198183;
637951278881206032;1281.785;29;4;3;0.2;1.4;1111;2.7002700270027;0.2394144;0.8422153;0.2226858;0.9256858;-0.4499517;2.036231;-0.4493766;1.973787;
637951278906189805;1284.283;29;4;3.5;0.2;2;1399;2.50178699070765;-0.3420197;0.5603072;-0.3805393;0.6439228;0;2.5;0.006380128;2.539821;
637951278923183681;1285.983;29;4;3.5;0.2;2;1699;2.06003531489111;0.6427875;2.266045;0.5989329;2.301986;-0.3420197;0.5603072;-0.3805393;0.6439228;
637951278936176648;1287.282;29;4;3.5;0.2;2;1299;2.69438029253272;-0.8660251;0.9999995;-0.8357666;1.014211;0.6427875;2.266045;0.5989329;2.301986;
637951278946168922;1288.281;29;4;3.5;0.2;2;1000;3.5;0.9848077;1.673648;0.9479658;1.634523;-0.8660251;0.9999995;-0.8357666;1.014211;
637951278958161655;1289.481;29;4;3.5;0.2;2;1199;2.91909924937448;-0.9848078;1.673648;-0.9159975;1.680196;0.9848077;1.673648;0.9479658;1.634523;
637951278968163940;1290.48;29;4;3.5;0.2;2;1000;3.5;0.8660256;1;0.78338;1.038593;-0.9848078;1.673648;-0.9159975;1.680196;
637951278980156670;1291.68;29;4;3.5;0.2;2;1200;2.91666666666667;-0.6427882;2.266044;-0.5709811;2.212493;0.8660256;1;0.78338;1.038593;
637951278990148949;1292.679;29;4;3.5;0.2;2;999;3.5035035035035;0.3420205;0.5603075;0.2611594;0.5952585;-0.6427882;2.266044;-0.5709811;2.212493;
637951279684505431;1362.114;29;5;4;0.1;1.4;1211;3.30305532617671;-0.2394138;0.8422151;-0.2268627;0.8696226;0;2.2;-0.01197574;2.222632;
637951279697498393;1363.413;29;5;4;0.1;1.4;1299;3.07929176289453;0.4499513;2.036231;0.4125057;2.005717;-0.2394138;0.8422151;-0.2268627;0.8696226;
637951279720483780;1365.712;29;5;4;0.1;1.4;2299;1.73988690735102;-0.6062176;1.15;-0.5768808;1.117773;0.4499513;2.036231;0.4125057;2.005717;
637951279734478884;1367.111;29;5;4;0.1;1.4;1399;2.85918513223731;0.6893654;1.621554;0.7024744;1.622866;-0.6062176;1.15;-0.5768808;1.117773;
637951279761465628;1369.81;29;5;4;0.1;1.4;2699;1.48203038162282;-0.6893655;1.621553;-0.7107331;1.608906;0.6893654;1.621554;0.7024744;1.622866;
637951279775458814;1371.21;29;5;4;0.1;1.4;1399;2.85918513223731;0.6062179;1.15;0.5849133;1.173835;-0.6893655;1.621553;-0.7107331;1.608906;
637951279787451550;1372.409;29;5;4;0.1;1.4;1199;3.33611342785655;-0.4499517;2.036231;-0.4545096;2.017969;0.6062179;1.15;0.5849133;1.173835;
637951279823539776;1376.018;29;5;4;0.1;1.4;3609;1.10834026045996;0.2394144;0.8422153;0.2451777;0.8818959;-0.4499517;2.036231;-0.4545096;2.017969;
637951279852536389;1378.917;29;5;2;0.6;1.8;1499;1.33422281521014;-0.3078177;0.6542765;-0.2955155;0.8819928;0;2.4;-0.0009626495;2.281824;
637951279865529353;1380.217;29;5;2;0.6;1.8;1300;1.53846153846154;0.5785087;2.18944;0.4414588;2.2423;-0.3078177;0.6542765;-0.2955155;0.8819928;
637951279878522314;1381.516;29;5;2;0.6;1.8;1300;1.53846153846154;-0.7794226;1.05;-0.8482318;1.18381;0.5785087;2.18944;0.4414588;2.2423;
637951279890515047;1382.716;29;5;2;0.6;1.8;1199;1.66805671392827;0.8863269;1.656283;0.7910674;1.657878;-0.7794226;1.05;-0.8482318;1.18381;
637951279899507098;1383.615;29;5;2;0.6;1.8;900;2.22222222222222;-0.8863271;1.656283;-0.8383027;1.649691;0.8863269;1.656283;0.7910674;1.657878;
637951279908499150;1384.514;29;5;2;0.6;1.8;899;2.22469410456062;0.779423;1.05;0.7169655;1.161959;-0.8863271;1.656283;-0.8383027;1.649691;
637951279918501423;1385.514;29;5;2;0.6;1.8;1000;2;-0.5785094;2.18944;-0.466755;2.020994;0.779423;1.05;0.7169655;1.161959;
637951279939496216;1387.613;29;5;2;0.6;1.8;2099;0.952834683182468;0.3078185;0.6542768;0.2344037;0.7977495;-0.5785094;2.18944;-0.466755;2.020994;
637951279974584215;1391.123;29;5;4.5;0.1;2.2;1699;2.64861683343143;-0.3762217;0.4663379;-0.3984467;0.4930691;0;2.6;-0.04594297;2.612378;
637951279987587181;1392.422;29;5;4.5;0.1;2.2;1300;3.46153846153846;0.7070663;2.342649;0.6676233;2.311921;-0.3762217;0.4663379;-0.3984467;0.4930691;
637951280000570144;1393.721;29;5;4.5;0.1;2.2;1299;3.46420323325635;-0.9526277;0.9499994;-0.9633258;0.9624004;0.7070663;2.342649;0.6676233;2.311921;
637951280023565383;1396.02;29;5;4.5;0.1;2.2;2299;1.9573727707699;1.083289;1.691013;1.098312;1.709144;-0.9526277;0.9499994;-0.9633258;0.9624004;
637951280050550819;1398.719;29;5;4.5;0.1;2.2;2699;1.66728417932568;-1.083289;1.691012;-1.074049;1.68018;1.083289;1.691013;1.098312;1.709144;
637951280069545153;1400.618;29;5;4.5;0.1;2.2;1899;2.3696682464455;0.9526281;0.9500003;0.9189817;0.96764;-1.083289;1.691012;-1.074049;1.68018;
637951280084530505;1402.117;29;5;4.5;0.1;2.2;1499;3.00200133422282;-0.7070671;2.342648;-0.7166095;2.308205;0.9526281;0.9500003;0.9189817;0.96764;
637951280108634606;1404.528;29;5;4.5;0.1;2.2;2410;1.86721991701245;0.3762226;0.4663382;0.3624609;0.478318;-0.7070671;2.342648;-0.7166095;2.308205;
637951280127628935;1406.427;29;5;3;0.2;1.4;899;3.33704115684093;-0.2394138;0.8422151;-0.2353343;0.8687705;0;2.2;-0.01707153;2.197064;
637951280137621212;1407.426;29;5;3;0.2;1.4;1000;3;0.4499513;2.036231;0.4368636;2.033702;-0.2394138;0.8422151;-0.2353343;0.8687705;
637951280146613261;1408.325;29;5;3;0.2;1.4;899;3.33704115684093;-0.6062176;1.15;-0.6751524;1.168958;0.4499513;2.036231;0.4368636;2.033702;
637951280156615545;1409.325;29;5;3;0.2;1.4;1000;3;0.6893654;1.621554;0.7319874;1.573718;-0.6062176;1.15;-0.6751524;1.168958;
637951280170609966;1410.725;29;5;3;0.2;1.4;1399;2.14438884917798;-0.6893655;1.621553;-0.699559;1.603372;0.6893654;1.621554;0.7319874;1.573718;
637951280180609572;1411.724;29;5;3;0.2;1.4;1000;3;0.6062179;1.15;0.6533039;1.192135;-0.6893655;1.621553;-0.699559;1.603372;
637951280191599295;1412.824;29;5;3;0.2;1.4;1099;2.72975432211101;-0.4499517;2.036231;-0.4455631;2.019867;0.6062179;1.15;0.6533039;1.192135;
637951280202592044;1413.923;29;5;3;0.2;1.4;1099;2.72975432211101;0.2394144;0.8422153;0.3077421;0.8621892;-0.4499517;2.036231;-0.4455631;2.019867;
637951280219698779;1415.633;29;5;1.5;1.1;2;900;1.66666666666667;-0.3420197;0.5603072;-0.2849421;0.9571511;0;2.5;0.02911067;2.282387;
637951280227690601;1416.433;29;5;1.5;1.1;2;800;1.875;0.6427875;2.266045;0.36361;2.085287;-0.3420197;0.5603072;-0.2849421;0.9571511;
637951280235692426;1417.233;29;5;1.5;1.1;2;800;1.875;-0.8660251;0.9999995;-0.6540378;1.304815;0.6427875;2.266045;0.36361;2.085287;
637951280241693793;1417.833;29;5;1.5;1.1;2;600;2.5;0.9848077;1.673648;0.6950307;1.698621;-0.8660251;0.9999995;-0.6540378;1.304815;
637951280250675844;1418.732;29;5;1.5;1.1;2;899;1.66852057842047;-0.9848078;1.673648;-0.6956893;1.771961;0.9848077;1.673648;0.6950307;1.698621;
637951280259677895;1419.631;29;5;1.5;1.1;2;900;1.66666666666667;0.8660256;1;0.5345228;1.344544;-0.9848078;1.673648;-0.6956893;1.771961;
637951280266669494;1420.331;29;5;1.5;1.1;2;699;2.14592274678112;-0.6427882;2.266044;-0.5139167;2.058;0.8660256;1;0.5345228;1.344544;
637951280274671313;1421.131;29;5;1.5;1.1;2;800;1.875;0.3420205;0.5603075;0.1615856;0.9554602;-0.6427882;2.266044;-0.5139167;2.058;
637951280307658834;1424.429;29;5;3.5;0.2;2;1399;2.50178699070765;-0.3420197;0.5603072;-0.3264294;0.6219258;0;2.5;-0.03052745;2.449755;
637951280317651112;1425.429;29;5;3.5;0.2;2;1000;3.5;0.6427875;2.266045;0.6056897;2.291241;-0.3420197;0.5603072;-0.3264294;0.6219258;
637951280327643392;1426.428;29;5;3.5;0.2;2;1000;3.5;-0.8660251;0.9999995;-0.8566552;1.062786;0.6427875;2.266045;0.6056897;2.291241;
637951280337645670;1427.428;29;5;3.5;0.2;2;1000;3.5;0.9848077;1.673648;0.9632291;1.658924;-0.8660251;0.9999995;-0.8566552;1.062786;
637951280355749799;1429.238;29;5;3.5;0.2;2;1810;1.93370165745856;-0.9848078;1.673648;-0.8903894;1.655507;0.9848077;1.673648;0.9632291;1.658924;
637951280366742307;1430.338;29;5;3.5;0.2;2;1099;3.18471337579618;0.8660256;1;0.8044594;1.077415;-0.9848078;1.673648;-0.8903894;1.655507;
637951280384726405;1432.137;29;5;3.5;0.2;2;1799;1.94552529182879;-0.6427882;2.266044;-0.6448941;2.273775;0.8660256;1;0.8044594;1.077415;
637951280400730053;1433.736;29;5;3.5;0.2;2;1600;2.1875;0.3420205;0.5603075;0.3178834;0.650741;-0.6427882;2.266044;-0.6448941;2.273775;
637951280420834637;1435.747;29;5;2.5;0.3;1.4;1011;2.47279920870425;-0.2394138;0.8422151;-0.242791;0.9000233;0;2.2;-0.004531128;2.119956;
637951280429816691;1436.646;29;5;2.5;0.3;1.4;899;2.78086763070078;0.4499513;2.036231;0.3747593;2.013038;-0.2394138;0.8422151;-0.242791;0.9000233;
637951280455812613;1439.245;29;5;2.5;0.3;1.4;2599;0.961908426317814;-0.6062176;1.15;-0.6343938;1.147323;0.4499513;2.036231;0.3747593;2.013038;
637951280466805118;1440.344;29;5;2.5;0.3;1.4;1100;2.27272727272727;0.6893654;1.621554;0.6047719;1.612659;-0.6062176;1.15;-0.6343938;1.147323;
637951280475797161;1441.244;29;5;2.5;0.3;1.4;899;2.78086763070078;-0.6893655;1.621553;-0.6786728;1.591908;0.6893654;1.621554;0.6047719;1.612659;
637951280485799450;1442.243;29;5;2.5;0.3;1.4;1000;2.5;0.6062179;1.15;0.5550439;1.241335;-0.6893655;1.621553;-0.6786728;1.591908;
637951280495787187;1443.243;29;5;2.5;0.3;1.4;1000;2.5;-0.4499517;2.036231;-0.379092;2.013373;0.6062179;1.15;0.5550439;1.241335;
637951280504789243;1444.142;29;5;2.5;0.3;1.4;900;2.77777777777778;0.2394144;0.8422153;0.1641582;0.9023056;-0.4499517;2.036231;-0.379092;2.013373;
637951281052982565;1498.961;29;6;2.5;0.3;1.4;999;2.5025025025025;-0.2394138;0.8422151;-0.2558588;0.9756774;0;2.2;0.03394316;2.167145;
637951281060974390;1499.761;29;6;2.5;0.3;1.4;799;3.12891113892365;0.4499513;2.036231;0.4280777;2.03881;-0.2394138;0.8422151;-0.2558588;0.9756774;
637951281072967121;1500.96;29;6;2.5;0.3;1.4;1200;2.08333333333333;-0.6062176;1.15;-0.5222095;1.207243;0.4499513;2.036231;0.4280777;2.03881;
637951281080958948;1501.76;29;6;2.5;0.3;1.4;800;3.125;0.6893654;1.621554;0.6820677;1.61256;-0.6062176;1.15;-0.5222095;1.207243;
637951281090961231;1502.76;29;6;2.5;0.3;1.4;1000;2.5;-0.6893655;1.621553;-0.6067035;1.625809;0.6893654;1.621554;0.6820677;1.61256;
637951281099953276;1503.659;29;6;2.5;0.3;1.4;899;2.78086763070078;0.6062179;1.15;0.5986518;1.208961;-0.6893655;1.621553;-0.6067035;1.625809;
637951281108955332;1504.559;29;6;2.5;0.3;1.4;900;2.77777777777778;-0.4499517;2.036231;-0.36121;2.024027;0.6062179;1.15;0.5986518;1.208961;
637951281116947150;1505.358;29;6;2.5;0.3;1.4;800;3.125;0.2394144;0.8422153;0.2308972;0.8784914;-0.4499517;2.036231;-0.36121;2.024027;
637951281145043557;1508.168;29;6;2;0.6;1.8;1699;1.17716303708064;-0.3078177;0.6542765;-0.2702461;0.878503;0;2.4;0.03548488;2.173713;
637951281155095848;1509.173;29;6;2;0.6;1.8;1005;1.99004975124378;0.5785087;2.18944;0.3956052;2.096;-0.3078177;0.6542765;-0.2702461;0.878503;
637951281163042122;1509.967;29;6;2;0.6;1.8;795;2.51572327044025;-0.7794226;1.05;-0.6431482;1.107545;0.5785087;2.18944;0.3956052;2.096;
637951281172034169;1510.867;29;6;2;0.6;1.8;900;2.22222222222222;0.8863269;1.656283;0.6674216;1.593728;-0.7794226;1.05;-0.6431482;1.107545;
637951281181026219;1511.767;29;6;2;0.6;1.8;900;2.22222222222222;-0.8863271;1.656283;-0.717721;1.589101;0.8863269;1.656283;0.6674216;1.593728;
637951281188027820;1512.466;29;6;2;0.6;1.8;700;2.85714285714286;0.779423;1.05;0.6266909;1.245292;-0.8863271;1.656283;-0.717721;1.589101;
637951281197022259;1513.366;29;6;2;0.6;1.8;899;2.22469410456062;-0.5785094;2.18944;-0.4246385;2.082654;0.779423;1.05;0.6266909;1.245292;
637951281206015718;1514.266;29;6;2;0.6;1.8;900;2.22222222222222;0.3078185;0.6542768;0.2329595;0.8695757;-0.5785094;2.18944;-0.4246385;2.082654;
637951281222019379;1515.865;29;6;1.5;1.1;2;900;1.66666666666667;-0.3420197;0.5603072;-0.2631262;0.9925447;0;2.5;0.01914057;2.147103;
637951281231001420;1516.764;29;6;1.5;1.1;2;899;1.66852057842047;0.6427875;2.266045;0.3414118;2.124815;-0.3420197;0.5603072;-0.2631262;0.9925447;
637951281240003475;1517.664;29;6;1.5;1.1;2;900;1.66666666666667;-0.8660251;0.9999995;-0.6419556;1.327801;0.6427875;2.266045;0.3414118;2.124815;
637951281246995066;1518.364;29;6;1.5;1.1;2;700;2.14285714285714;0.9848077;1.673648;0.7097403;1.677119;-0.8660251;0.9999995;-0.6419556;1.327801;
637951281255997119;1519.263;29;6;1.5;1.1;2;900;1.66666666666667;-0.9848078;1.673648;-0.75326;1.724171;0.9848077;1.673648;0.7097403;1.677119;
637951281266099425;1520.274;29;6;1.5;1.1;2;1011;1.48367952522255;0.8660256;1;0.4135922;1.166345;-0.9848078;1.673648;-0.75326;1.724171;
637951281274091245;1521.073;29;6;1.5;1.1;2;799;1.87734668335419;-0.6427882;2.266044;-0.4561556;2.046359;0.8660256;1;0.4135922;1.166345;
637951281282093070;1521.873;29;6;1.5;1.1;2;800;1.875;0.3420205;0.5603075;0.2124842;0.9222229;-0.6427882;2.266044;-0.4561556;2.046359;
637951281308078996;1524.472;29;6;4;0.1;1.4;1199;3.33611342785655;-0.2394138;0.8422151;-0.2252115;0.8512768;0;2.2;0.00907114;2.208937;
637951281322082188;1525.871;29;6;4;0.1;1.4;1399;2.85918513223731;0.4499513;2.036231;0.4443299;2.053423;-0.2394138;0.8422151;-0.2252115;0.8512768;
637951281335065150;1527.17;29;6;4;0.1;1.4;1299;3.07929176289453;-0.6062176;1.15;-0.6135421;1.131352;0.4499513;2.036231;0.4443299;2.053423;
637951281357060168;1529.369;29;6;4;0.1;1.4;2199;1.81900864029104;0.6893654;1.621554;0.7253247;1.626139;-0.6062176;1.15;-0.6135421;1.131352;
637951281377104731;1531.374;29;6;4;0.1;1.4;2005;1.99501246882793;-0.6893655;1.621553;-0.6826816;1.63153;0.6893654;1.621554;0.7253247;1.626139;
637951281390047682;1532.668;29;6;4;0.1;1.4;1294;3.09119010819165;0.6062179;1.15;0.6027741;1.116065;-0.6893655;1.621553;-0.6826816;1.63153;
637951281404040875;1534.067;29;6;4;0.1;1.4;1399;2.85918513223731;-0.4499517;2.036231;-0.4384057;2.015397;0.6062179;1.15;0.6027741;1.116065;
637951281426135903;1536.277;29;6;4;0.1;1.4;2210;1.80995475113122;0.2394144;0.8422153;0.2332668;0.8532299;-0.4499517;2.036231;-0.4384057;2.015397;
637951281447130701;1538.376;29;6;3;0.2;1.4;1000;3;-0.2394138;0.8422151;-0.2518637;0.8563167;0;2.2;-0.0117162;2.147678;
637951281457122979;1539.376;29;6;3;0.2;1.4;999;3.003003003003;0.4499513;2.036231;0.3854782;2.060404;-0.2394138;0.8422151;-0.2518637;0.8563167;
637951281468175497;1540.481;29;6;3;0.2;1.4;1105;2.71493212669683;-0.6062176;1.15;-0.5927426;1.110696;0.4499513;2.036231;0.3854782;2.060404;
637951281478117756;1541.475;29;6;3;0.2;1.4;994;3.01810865191147;0.6893654;1.621554;0.6406837;1.629235;-0.6062176;1.15;-0.5927426;1.110696;
637951281489110272;1542.575;29;6;3;0.2;1.4;1100;2.72727272727273;-0.6893655;1.621553;-0.5976881;1.606002;0.6893654;1.621554;0.6406837;1.629235;
637951281497102091;1543.374;29;6;3;0.2;1.4;799;3.75469336670839;0.6062179;1.15;0.6205396;1.220822;-0.6893655;1.621553;-0.5976881;1.606002;
637951281526090857;1546.273;29;6;3;0.2;1.4;2899;1.03483959986202;-0.4499517;2.036231;-0.4774594;2.070929;0.6062179;1.15;0.6205396;1.220822;
637951281547085643;1548.372;29;6;3;0.2;1.4;2099;1.4292520247737;0.2394144;0.8422153;0.2252582;0.899237;-0.4499517;2.036231;-0.4774594;2.070929;
637951281574178125;1551.081;29;6;3.5;0.2;2;1411;2.48051027639972;-0.3420197;0.5603072;-0.3115683;0.5956789;0;2.5;-0.02110536;2.50694;
637951281586230873;1552.286;29;6;3.5;0.2;2;1205;2.9045643153527;0.6427875;2.266045;0.6046127;2.274906;-0.3420197;0.5603072;-0.3115683;0.5956789;
637951281598173597;1553.48;29;6;3.5;0.2;2;1194;2.93132328308208;-0.8660251;0.9999995;-0.8347985;1.029444;0.6427875;2.266045;0.6046127;2.274906;
637951281619158381;1555.58;29;6;3.5;0.2;2;2099;1.66746069556932;0.9848077;1.673648;0.9832831;1.590972;-0.8660251;0.9999995;-0.8347985;1.029444;
637951281632151348;1556.879;29;6;3.5;0.2;2;1299;2.69438029253272;-0.9848078;1.673648;-0.9079062;1.633184;0.9848077;1.673648;0.9832831;1.590972;
637951281650195455;1558.683;29;6;3.5;0.2;2;1804;1.94013303769401;0.8660256;1;0.8254303;1.026887;-0.9848078;1.673648;-0.9079062;1.633184;
637951281665138862;1560.177;29;6;3.5;0.2;2;1494;2.34270414993307;-0.6427882;2.266044;-0.5980759;2.239331;0.8660256;1;0.8254303;1.026887;
637951281677131598;1561.377;29;6;3.5;0.2;2;1200;2.91666666666667;0.3420205;0.5603075;0.3431236;0.6456492;-0.6427882;2.266044;-0.5980759;2.239331;
637951281708118663;1564.475;29;6;4.5;0.1;2.2;1499;3.00200133422282;-0.3762217;0.4663379;-0.3645312;0.4865789;0;2.6;-0.02101523;2.595882;
637951281733214383;1566.985;29;6;4.5;0.1;2.2;2510;1.79282868525896;0.7070663;2.342649;0.7043993;2.310898;-0.3762217;0.4663379;-0.3645312;0.4865789;
637951281748207803;1568.484;29;6;4.5;0.1;2.2;1499;3.00200133422282;-0.9526277;0.9499994;-0.9397381;0.9649889;0.7070663;2.342649;0.7043993;2.310898;
637951281771203048;1570.784;29;6;4.5;0.1;2.2;2299;1.9573727707699;1.083289;1.691013;1.047779;1.69474;-0.9526277;0.9499994;-0.9397381;0.9649889;
637951281793188057;1572.982;29;6;4.5;0.1;2.2;2199;2.04638472032742;-1.083289;1.691012;-1.056418;1.680364;1.083289;1.691013;1.047779;1.69474;
637951281821184440;1575.781;29;6;4.5;0.1;2.2;2799;1.60771704180064;0.9526281;0.9500003;0.9180492;0.9575297;-1.083289;1.691012;-1.056418;1.680364;
637951281838168309;1577.481;29;6;4.5;0.1;2.2;1699;2.64861683343143;-0.7070671;2.342648;-0.6876473;2.312279;0.9526281;0.9500003;0.9180492;0.9575297;
637951281860174214;1579.68;29;6;4.5;0.1;2.2;2199;2.04638472032742;0.3762226;0.4663382;0.3655941;0.4821837;-0.7070671;2.342648;-0.6876473;2.312279;
637951282625595885;1656.222;29;7;4.5;0.1;2.2;1300;3.46153846153846;-0.3762217;0.4663379;-0.3726866;0.5123727;0;2.6;0.00860035;2.562847;
637951282650686399;1658.731;29;7;4.5;0.1;2.2;2510;1.79282868525896;0.7070663;2.342649;0.7113956;2.362719;-0.3762217;0.4663379;-0.3726866;0.5123727;
637951282683670477;1662.03;29;7;4.5;0.1;2.2;3299;1.36404971203395;-0.9526277;0.9499994;-0.9433755;0.9471388;0.7070663;2.342649;0.7113956;2.362719;
637951282718648455;1665.528;29;7;4.5;0.1;2.2;3498;1.28644939965695;1.083289;1.691013;1.082965;1.663859;-0.9526277;0.9499994;-0.9433755;0.9471388;
637951282741643694;1667.827;29;7;4.5;0.1;2.2;2299;1.9573727707699;-1.083289;1.691012;-1.066825;1.684619;1.083289;1.691013;1.082965;1.663859;
637951282781622811;1671.825;29;7;4.5;0.1;2.2;3998;1.1255627813907;0.9526281;0.9500003;0.9455505;0.9493947;-1.083289;1.691012;-1.066825;1.684619;
637951282804728079;1674.136;29;7;4.5;0.1;2.2;2311;1.94720900043271;-0.7070671;2.342648;-0.718909;2.345027;0.9526281;0.9500003;0.9455505;0.9493947;
637951282824712634;1676.134;29;7;4.5;0.1;2.2;1999;2.25112556278139;0.3762226;0.4663382;0.3820147;0.4615462;-0.7070671;2.342648;-0.718909;2.345027;
637951282842706739;1677.934;29;7;1.5;1.1;2;800;1.875;-0.3420197;0.5603072;-0.2730998;0.8969527;0;2.5;0.0648123;2.303484;
637951282850708563;1678.733;29;7;1.5;1.1;2;800;1.875;0.6427875;2.266045;0.4507079;1.99104;-0.3420197;0.5603072;-0.2730998;0.8969527;
637951282858700385;1679.533;29;7;1.5;1.1;2;800;1.875;-0.8660251;0.9999995;-0.7264445;1.437716;0.6427875;2.266045;0.4507079;1.99104;
637951282868692662;1680.532;29;7;1.5;1.1;2;999;1.5015015015015;0.9848077;1.673648;0.6081789;1.589201;-0.8660251;0.9999995;-0.7264445;1.437716;
637951282876694486;1681.332;29;7;1.5;1.1;2;800;1.875;-0.9848078;1.673648;-0.741361;1.814545;0.9848077;1.673648;0.6081789;1.589201;
637951282884686310;1682.132;29;7;1.5;1.1;2;799;1.87734668335419;0.8660256;1;0.5376852;1.237823;-0.9848078;1.673648;-0.741361;1.814545;
637951282899679726;1683.631;29;7;1.5;1.1;2;1499;1.00066711140761;-0.6427882;2.266044;-0.4152439;2.107889;0.8660256;1;0.5376852;1.237823;
637951282907671548;1684.431;29;7;1.5;1.1;2;800;1.875;0.3420205;0.5603075;0.1262857;0.8010777;-0.6427882;2.266044;-0.4152439;2.107889;
637951282936668162;1687.33;29;7;3;0.2;1.4;1699;1.76574455562095;-0.2394138;0.8422151;-0.2559676;0.8143356;0;2.2;-0.0477121;2.173818;
637951282951654452;1688.829;29;7;3;0.2;1.4;1499;2.00133422281521;0.4499513;2.036231;0.4536436;1.96893;-0.2394138;0.8422151;-0.2559676;0.8143356;
637951282977760405;1691.438;29;7;3;0.2;1.4;2610;1.14942528735632;-0.6062176;1.15;-0.608341;1.172505;0.4499513;2.036231;0.4536436;1.96893;
637951282995743293;1693.238;29;7;3;0.2;1.4;1799;1.66759310728182;0.6893654;1.621554;0.6548968;1.576605;-0.6062176;1.15;-0.608341;1.172505;
637951283036726097;1697.336;29;7;3;0.2;1.4;4098;0.732064421669107;-0.6893655;1.621553;-0.6817589;1.635199;0.6893654;1.621554;0.6548968;1.576605;
637951283052719744;1698.935;29;7;3;0.2;1.4;1599;1.87617260787993;0.6062179;1.15;0.5799859;1.193315;-0.6893655;1.621553;-0.6817589;1.635199;
637951283065722710;1700.235;29;7;3;0.2;1.4;1300;2.30769230769231;-0.4499517;2.036231;-0.4506911;2.001251;0.6062179;1.15;0.5799859;1.193315;
637951283076705212;1701.334;29;7;3;0.2;1.4;1099;2.72975432211101;0.2394144;0.8422153;0.2653472;0.8530324;-0.4499517;2.036231;-0.4506911;2.001251;
637951283099860492;1703.649;29;7;2.5;0.3;1.4;1316;1.89969604863222;-0.2394138;0.8422151;-0.2417749;0.9063554;0;2.2;0.01601674;2.232275;
637951283115804127;1705.243;29;7;2.5;0.3;1.4;1594;1.56838143036386;0.4499513;2.036231;0.4122892;2.032059;-0.2394138;0.8422151;-0.2417749;0.9063554;
637951283134798458;1707.142;29;7;2.5;0.3;1.4;1899;1.31648235913639;-0.6062176;1.15;-0.5800908;1.17629;0.4499513;2.036231;0.4122892;2.032059;
637951283152792559;1708.942;29;7;2.5;0.3;1.4;1799;1.38966092273485;0.6893654;1.621554;0.6768692;1.648998;-0.6062176;1.15;-0.5800908;1.17629;
637951283164775291;1710.141;29;7;2.5;0.3;1.4;1199;2.08507089241034;-0.6893655;1.621553;-0.6728233;1.633042;0.6893654;1.621554;0.6768692;1.648998;
637951283173777346;1711.04;29;7;2.5;0.3;1.4;900;2.77777777777778;0.6062179;1.15;0.5789322;1.181859;-0.6893655;1.621553;-0.6728233;1.633042;
637951283182769387;1711.94;29;7;2.5;0.3;1.4;899;2.78086763070078;-0.4499517;2.036231;-0.3671209;2.012261;0.6062179;1.15;0.5789322;1.181859;
637951283191771444;1712.839;29;7;2.5;0.3;1.4;900;2.77777777777778;0.2394144;0.8422153;0.18322;0.907541;-0.4499517;2.036231;-0.3671209;2.012261;
637951283229750105;1716.638;29;7;4;0.1;1.4;2199;1.81900864029104;-0.2394138;0.8422151;-0.2482017;0.8668157;0;2.2;0.01618901;2.189903;
637951283258846742;1719.547;29;7;4;0.1;1.4;2910;1.3745704467354;0.4499513;2.036231;0.4328322;2.020409;-0.2394138;0.8422151;-0.2482017;0.8668157;
637951283278841297;1721.547;29;7;4;0.1;1.4;2000;2;-0.6062176;1.15;-0.610406;1.172108;0.4499513;2.036231;0.4328322;2.020409;
637951283291834262;1722.846;29;7;4;0.1;1.4;1299;3.07929176289453;0.6893654;1.621554;0.6736476;1.649042;-0.6062176;1.15;-0.610406;1.172108;
637951283316824888;1725.345;29;7;4;0.1;1.4;2499;1.60064025610244;-0.6893655;1.621553;-0.6951665;1.650093;0.6893654;1.621554;0.6736476;1.649042;
637951283332818534;1726.944;29;7;4;0.1;1.4;1599;2.50156347717323;0.6062179;1.15;0.5867194;1.19509;-0.6893655;1.621553;-0.6951665;1.650093;
637951283344811308;1728.144;29;7;4;0.1;1.4;1199;3.33611342785655;-0.4499517;2.036231;-0.4590696;2.020822;0.6062179;1.15;0.5867194;1.19509;
637951283356798947;1729.343;29;7;4;0.1;1.4;1199;3.33611342785655;0.2394144;0.8422153;0.2345534;0.8570676;-0.4499517;2.036231;-0.4590696;2.020822;
637951283390786808;1732.741;29;7;2;0.6;1.8;1399;1.42959256611866;-0.3078177;0.6542765;-0.2068228;0.8694326;0;2.4;-0.005245654;2.31979;
637951283401899343;1733.852;29;7;2;0.6;1.8;1111;1.8001800180018;0.5785087;2.18944;0.376924;2.154463;-0.3078177;0.6542765;-0.2068228;0.8694326;
637951283414882298;1735.151;29;7;2;0.6;1.8;1299;1.53964588144727;-0.7794226;1.05;-0.7733449;1.22413;0.5785087;2.18944;0.376924;2.154463;
637951283426885038;1736.351;29;7;2;0.6;1.8;1199;1.66805671392827;0.8863269;1.656283;0.7180246;1.660368;-0.7794226;1.05;-0.7733449;1.22413;
637951283448870052;1738.55;29;7;2;0.6;1.8;2199;0.909504320145521;-0.8863271;1.656283;-0.7878132;1.661102;0.8863269;1.656283;0.7180246;1.660368;
637951283457862102;1739.45;29;7;2;0.6;1.8;900;2.22222222222222;0.779423;1.05;0.7640449;1.24371;-0.8863271;1.656283;-0.7878132;1.661102;
637951283466864154;1740.349;29;7;2;0.6;1.8;899;2.22469410456062;-0.5785094;2.18944;-0.6379094;2.062887;0.779423;1.05;0.7640449;1.24371;
637951283474855975;1741.149;29;7;2;0.6;1.8;800;2.5;0.3078185;0.6542768;0.2436182;0.8949951;-0.5785094;2.18944;-0.6379094;2.062887;
637951283501842133;1743.847;29;7;3.5;0.2;2;1400;2.5;-0.3420197;0.5603072;-0.3783747;0.6100349;0;2.5;-0.02706271;2.477902;
637951283515835319;1745.247;29;7;3.5;0.2;2;1399;2.50178699070765;0.6427875;2.266045;0.6167996;2.244262;-0.3420197;0.5603072;-0.3783747;0.6100349;
637951283528838285;1746.547;29;7;3.5;0.2;2;1300;2.69230769230769;-0.8660251;0.9999995;-0.9047547;0.985426;0.6427875;2.266045;0.6167996;2.244262;
637951283543111531;1747.981;29;7;3.5;0.2;2;1434;2.44072524407252;0.9848077;1.673648;0.886469;1.65602;-0.8660251;0.9999995;-0.9047547;0.985426;
637951283554934229;1749.156;29;7;3.5;0.2;2;1175;2.97872340425532;-0.9848078;1.673648;-0.9727827;1.678377;0.9848077;1.673648;0.886469;1.65602;
637951283568937426;1750.556;29;7;3.5;0.2;2;1400;2.5;0.8660256;1;0.9398735;1.024024;-0.9848078;1.673648;-0.9727827;1.678377;
637951283586921525;1752.355;29;7;3.5;0.2;2;1799;1.94552529182879;-0.6427882;2.266044;-0.6081508;2.254372;0.8660256;1;0.9398735;1.024024;
637951283599914489;1753.654;29;7;3.5;0.2;2;1299;2.69438029253272;0.3420205;0.5603075;0.3249584;0.6285187;-0.6427882;2.266044;-0.6081508;2.254372;
