637951447767216211;215.4148;2;0;2;0.6;1.8;799;2.50312891113892;-0.3078177;0.6542765;-0.2532796;0.8759586;0;2.4;0.02467547;2.168781;
637951447774287799;216.1218;2;0;2;0.6;1.8;707;2.82885431400283;0.5785087;2.18944;0.5344021;2.139147;-0.3078177;0.6542765;-0.2532796;0.8759586;
637951447794272287;218.1206;2;0;2;0.6;1.8;1999;1.00050025012506;-0.7794226;1.05;-0.6721544;1.146586;0.5785087;2.18944;0.5344021;2.139147;
637951447803274309;219.0204;2;0;2;0.6;1.8;900;2.22222222222222;0.8863269;1.656283;0.588724;1.626617;-0.7794226;1.05;-0.6721544;1.146586;
637951447816317241;220.3247;2;0;2;0.6;1.8;1304;1.53374233128834;-0.8863271;1.656283;-0.7030916;1.623555;0.8863269;1.656283;0.588724;1.626617;
637951447827269698;221.4197;2;0;2;0.6;1.8;1095;1.82648401826484;0.779423;1.05;0.5959303;1.237727;-0.8863271;1.656283;-0.7030916;1.623555;
637951447837311956;222.4238;2;0;2;0.6;1.8;1004;1.99203187250996;-0.5785094;2.18944;-0.4372899;2.052858;0.779423;1.05;0.5959303;1.237727;
637951447850244860;223.7183;2;0;2;0.6;1.8;1294;1.54559505409583;0.3078185;0.6542768;0.2562934;0.8567911;-0.5785094;2.18944;-0.4372899;2.052858;
637951447881231815;226.8167;2;0;2.5;0.3;1.4;1199;2.08507089241034;-0.2394138;0.8422151;-0.2387566;0.919672;0;2.2;0.01781301;2.128121;
637951447893344541;228.0273;2;0;2.5;0.3;1.4;1211;2.06440957886045;0.4499513;2.036231;0.3895451;2.035439;-0.2394138;0.8422151;-0.2387566;0.919672;
637951447904337009;229.1269;2;0;2.5;0.3;1.4;1100;2.27272727272727;-0.6062176;1.15;-0.5358537;1.246211;0.4499513;2.036231;0.3895451;2.035439;
637951447913339033;230.0266;2;0;2.5;0.3;1.4;900;2.77777777777778;0.6893654;1.621554;0.5545581;1.582373;-0.6062176;1.15;-0.5358537;1.246211;
637951447936324191;232.3253;2;0;2.5;0.3;1.4;2299;1.08742931709439;-0.6893655;1.621553;-0.7362983;1.662305;0.6893654;1.621554;0.5545581;1.582373;
637951447951317559;233.8249;2;0;2.5;0.3;1.4;1500;1.66666666666667;0.6062179;1.15;0.4999433;1.238086;-0.6893655;1.621553;-0.7362983;1.662305;
637951447962310032;234.9242;2;0;2.5;0.3;1.4;1099;2.27479526842584;-0.4499517;2.036231;-0.3557244;1.992575;0.6062179;1.15;0.4999433;1.238086;
637951447975302950;236.2236;2;0;2.5;0.3;1.4;1299;1.92455735180908;0.2394144;0.8422153;0.2253353;0.9392997;-0.4499517;2.036231;-0.3557244;1.992575;
637951448002409033;238.9335;2;0;4;0.1;1.4;1210;3.30578512396694;-0.2394138;0.8422151;-0.2281581;0.8298655;0;2.2;0.006684414;2.182067;
637951448019452861;240.6384;2;0;4;0.1;1.4;1705;2.34604105571848;0.4499513;2.036231;0.436325;2.026803;-0.2394138;0.8422151;-0.2281581;0.8298655;
637951448049379584;243.6315;2;0;4;0.1;1.4;2993;1.33645172068159;-0.6062176;1.15;-0.5985552;1.13978;0.4499513;2.036231;0.436325;2.026803;
637951448082368809;246.9302;2;0;4;0.1;1.4;3299;1.21248863291907;0.6893654;1.621554;0.6600336;1.625842;-0.6062176;1.15;-0.5985552;1.13978;
637951448100362853;248.7293;2;0;4;0.1;1.4;1799;2.22345747637576;-0.6893655;1.621553;-0.6857535;1.621846;0.6893654;1.621554;0.6600336;1.625842;
637951448113409824;250.0341;2;0;4;0.1;1.4;1305;3.06513409961686;0.6062179;1.15;0.5805318;1.150346;-0.6893655;1.621553;-0.6857535;1.621846;
637951448129350638;251.6279;2;0;4;0.1;1.4;1594;2.50941028858218;-0.4499517;2.036231;-0.4329473;2.012221;0.6062179;1.15;0.5805318;1.150346;
637951448146450644;253.3381;2;0;4;0.1;1.4;1710;2.33918128654971;0.2394144;0.8422153;0.2338764;0.8883094;-0.4499517;2.036231;-0.4329473;2.012221;
637951448173441058;256.037;2;0;3;0.2;1.4;1099;2.72975432211101;-0.2394138;0.8422151;-0.2040722;0.9357308;0;2.2;-0.01159379;2.191325;
637951448185834227;257.2831;2;0;3;0.2;1.4;1246;2.40770465489567;0.4499513;2.036231;0.3965855;1.95525;-0.2394138;0.8422151;-0.2040722;0.9357308;
637951448199427281;258.6357;2;0;3;0.2;1.4;1353;2.21729490022173;-0.6062176;1.15;-0.5683963;1.219315;0.4499513;2.036231;0.3965855;1.95525;
637951448211419975;259.8352;2;0;3;0.2;1.4;1200;2.5;0.6893654;1.621554;0.6900487;1.626348;-0.6062176;1.15;-0.5683963;1.219315;
637951448222472456;260.9399;2;0;3;0.2;1.4;1105;2.71493212669683;-0.6893655;1.621553;-0.6035144;1.608502;0.6893654;1.621554;0.6900487;1.626348;
637951448236405586;262.334;2;0;3;0.2;1.4;1394;2.15208034433285;0.6062179;1.15;0.587844;1.173376;-0.6893655;1.621553;-0.6035144;1.608502;
637951448247518076;263.4447;2;0;3;0.2;1.4;1111;2.7002700270027;-0.4499517;2.036231;-0.474949;2.046574;0.6062179;1.15;0.587844;1.173376;
637951448259510777;264.644;2;0;3;0.2;1.4;1199;2.50208507089241;0.2394144;0.8422153;0.2319084;0.8928086;-0.4499517;2.036231;-0.474949;2.046574;
637951448293498410;268.0427;2;0;4.5;0.1;2.2;1799;2.50138966092273;-0.3762217;0.4663379;-0.3677378;0.458086;0;2.6;-0.009570174;2.576221;
637951448311492450;269.8422;2;0;4.5;0.1;2.2;1799;2.50138966092273;0.7070663;2.342649;0.6861686;2.353723;-0.3762217;0.4663379;-0.3677378;0.458086;
637951448344469858;273.1401;2;0;4.5;0.1;2.2;3298;1.36446331109763;-0.9526277;0.9499994;-0.9241139;0.9580109;0.7070663;2.342649;0.6861686;2.353723;
637951448364464349;275.1396;2;0;4.5;0.1;2.2;2000;2.25;1.083289;1.691013;1.036998;1.682963;-0.9526277;0.9499994;-0.9241139;0.9580109;
637951448383508622;277.0439;2;0;4.5;0.1;2.2;1904;2.36344537815126;-1.083289;1.691012;-1.064103;1.67511;1.083289;1.691013;1.036998;1.682963;
637951448415495809;280.2424;2;0;4.5;0.1;2.2;3199;1.40668959049703;0.9526281;0.9500003;0.9366088;0.9744446;-1.083289;1.691012;-1.064103;1.67511;
637951448433869936;282.0871;2;0;4.5;0.1;2.2;1845;2.4390243902439;-0.7070671;2.342648;-0.6767092;2.303317;0.9526281;0.9500003;0.9366088;0.9744446;
637951448447533003;283.4468;2;0;4.5;0.1;2.2;1360;3.30882352941176;0.3762226;0.4663382;0.3265972;0.4719294;-0.7070671;2.342648;-0.6767092;2.303317;
637951448471518394;285.8452;2;0;1.5;1.1;2;1199;1.25104253544621;-0.3420197;0.5603072;-0.2911536;0.8780261;0;2.5;-0.01172287;2.288966;
637951448480575596;286.75;2;0;1.5;1.1;2;905;1.65745856353591;0.6427875;2.266045;0.3835622;2.011613;-0.3420197;0.5603072;-0.2911536;0.8780261;
637951448491516400;287.8446;2;0;1.5;1.1;2;1095;1.36986301369863;-0.8660251;0.9999995;-0.6324586;1.320646;0.6427875;2.266045;0.3835622;2.011613;
637951448499587533;288.644;2;0;1.5;1.1;2;799;1.87734668335419;0.9848077;1.673648;0.5261036;1.601084;-0.8660251;0.9999995;-0.6324586;1.320646;
637951448508509539;289.5438;2;0;1.5;1.1;2;900;1.66666666666667;-0.9848078;1.673648;-0.5603558;1.708109;0.9848077;1.673648;0.5261036;1.601084;
637951448517501558;290.4432;2;0;1.5;1.1;2;899;1.66852057842047;0.8660256;1;0.4894736;1.216075;-0.9848078;1.673648;-0.5603558;1.708109;
637951448533497568;292.0428;2;0;1.5;1.1;2;1600;0.9375;-0.6427882;2.266044;-0.4149111;2.100329;0.8660256;1;0.4894736;1.216075;
637951448552604955;293.9532;2;0;1.5;1.1;2;1910;0.785340314136126;0.3420205;0.5603075;0.2293213;0.8509803;-0.6427882;2.266044;-0.4149111;2.100329;
637951448582591686;296.9518;2;0;3.5;0.2;2;1299;2.69438029253272;-0.3420197;0.5603072;-0.3137352;0.6465858;0;2.5;-0.00486153;2.47469;
637951448595024480;298.2025;2;0;3.5;0.2;2;1251;2.79776179056755;0.6427875;2.266045;0.5479891;2.239331;-0.3420197;0.5603072;-0.3137352;0.6465858;
637951448609577749;299.6504;2;0;3.5;0.2;2;1448;2.4171270718232;-0.8660251;0.9999995;-0.8975606;1.060247;0.6427875;2.266045;0.5479891;2.239331;
637951448623620907;301.0552;2;0;3.5;0.2;2;1405;2.49110320284698;0.9848077;1.673648;1.030958;1.698702;-0.8660251;0.9999995;-0.8975606;1.060247;
637951448638554257;302.5491;2;0;3.5;0.2;2;1494;2.34270414993307;-0.9848078;1.673648;-0.9870708;1.643267;0.9848077;1.673648;1.030958;1.698702;
637951448667550771;305.4476;2;0;3.5;0.2;2;2899;1.20731286650569;0.8660256;1;0.8404399;1.060594;-0.9848078;1.673648;-0.9870708;1.643267;
637951448681533911;306.847;2;0;3.5;0.2;2;1399;2.50178699070765;-0.6427882;2.266044;-0.5911589;2.282445;0.8660256;1;0.8404399;1.060594;
637951448694646855;308.158;2;0;3.5;0.2;2;1311;2.6697177726926;0.3420205;0.5603075;0.3042485;0.631068;-0.6427882;2.266044;-0.5911589;2.282445;
637951449684845339;407.179;2;1;2.5;0.3;1.4;1199;2.08507089241034;-0.2394138;0.8422151;-0.2443585;0.9324428;0;2.2;0.03300633;2.197363;
637951449692848329;407.9791;2;1;2.5;0.3;1.4;800;3.125;0.4499513;2.036231;0.3636183;1.956003;-0.2394138;0.8422151;-0.2443585;0.9324428;
637951449706892978;409.3836;2;1;2.5;0.3;1.4;1405;1.77935943060498;-0.6062176;1.15;-0.5260274;1.173133;0.4499513;2.036231;0.3636183;1.956003;
637951449716945240;410.3887;2;1;2.5;0.3;1.4;1005;2.48756218905473;0.6893654;1.621554;0.6720771;1.642929;-0.6062176;1.15;-0.5260274;1.173133;
637951449727937700;411.4883;2;1;2.5;0.3;1.4;1100;2.27272727272727;-0.6893655;1.621553;-0.6400086;1.566195;0.6893654;1.621554;0.6720771;1.642929;
637951449739930401;412.6877;2;1;2.5;0.3;1.4;1199;2.08507089241034;0.6062179;1.15;0.5646765;1.177181;-0.6893655;1.621553;-0.6400086;1.566195;
637951449749922646;413.6871;2;1;2.5;0.3;1.4;999;2.5025025025025;-0.4499517;2.036231;-0.3798511;2.04196;0.6062179;1.15;0.5646765;1.177181;
637951449760925116;414.7871;2;1;2.5;0.3;1.4;1100;2.27272727272727;0.2394144;0.8422153;0.2082988;0.9237218;-0.4499517;2.036231;-0.3798511;2.04196;
637951449788911401;417.5855;2;1;3.5;0.2;2;1599;2.18886804252658;-0.3420197;0.5603072;-0.326203;0.6544952;0;2.5;-0.0145248;2.439843;
637951449803904767;419.0852;2;1;3.5;0.2;2;1500;2.33333333333333;0.6427875;2.266045;0.575216;2.282193;-0.3420197;0.5603072;-0.326203;0.6544952;
637951449818898135;420.5841;2;1;3.5;0.2;2;1499;2.33488992661775;-0.8660251;0.9999995;-0.7751106;0.9773955;0.6427875;2.266045;0.575216;2.282193;
637951449834891730;422.1834;2;1;3.5;0.2;2;1599;2.18886804252658;0.9848077;1.673648;0.8862687;1.665451;-0.8660251;0.9999995;-0.7751106;0.9773955;
637951449848884872;423.583;2;1;3.5;0.2;2;1400;2.5;-0.9848078;1.673648;-0.9293522;1.686629;0.9848077;1.673648;0.8862687;1.665451;
637951449861987812;424.8931;2;1;3.5;0.2;2;1310;2.67175572519084;0.8660256;1;0.8197733;1.039172;-0.9848078;1.673648;-0.9293522;1.686629;
637951449874980733;426.1927;2;1;3.5;0.2;2;1300;2.69230769230769;-0.6427882;2.266044;-0.5805283;2.240444;0.8660256;1;0.8197733;1.039172;
637951449888973876;427.592;2;1;3.5;0.2;2;1399;2.50178699070765;0.3420205;0.5603075;0.3197719;0.6447475;-0.6427882;2.266044;-0.5805283;2.240444;
637951449925962182;431.2906;2;1;4.5;0.1;2.2;2199;2.04638472032742;-0.3762217;0.4663379;-0.373293;0.488795;0;2.6;0.03913629;2.582892;
637951449939955327;432.6897;2;1;4.5;0.1;2.2;1399;3.21658327376698;0.7070663;2.342649;0.6683804;2.332518;-0.3762217;0.4663379;-0.373293;0.488795;
637951449954948692;434.189;2;1;4.5;0.1;2.2;1499;3.00200133422282;-0.9526277;0.9499994;-0.9503065;0.9942698;0.7070663;2.342649;0.6683804;2.332518;
637951449980934528;436.7878;2;1;4.5;0.1;2.2;2599;1.73143516737207;1.083289;1.691013;1.043719;1.672133;-0.9526277;0.9499994;-0.9503065;0.9942698;
637951449996092129;438.3036;2;1;4.5;0.1;2.2;1516;2.96833773087071;-1.083289;1.691012;-1.047089;1.71732;1.083289;1.691013;1.043719;1.672133;
637951450013032083;439.9974;2;1;4.5;0.1;2.2;1694;2.65643447461629;0.9526281;0.9500003;0.9160078;0.9741788;-1.083289;1.691012;-1.047089;1.71732;
637951450031026126;441.7969;2;1;4.5;0.1;2.2;1799;2.50138966092273;-0.7070671;2.342648;-0.6813386;2.334345;0.9526281;0.9500003;0.9160078;0.9741788;
637951450048019944;443.496;2;1;4.5;0.1;2.2;1699;2.64861683343143;0.3762226;0.4663382;0.3355086;0.4835618;-0.7070671;2.342648;-0.6813386;2.334345;
637951450070011164;445.6952;2;1;2;0.6;1.8;1000;2;-0.3078177;0.6542765;-0.3329352;0.7957412;0;2.4;-0.01793234;2.346749;
637951450077998162;446.4947;2;1;2;0.6;1.8;799;2.50312891113892;0.5785087;2.18944;0.5017744;2.09829;-0.3078177;0.6542765;-0.3329352;0.7957412;
637951450087997916;447.4943;2;1;2;0.6;1.8;1000;2;-0.7794226;1.05;-0.7414495;1.173191;0.5785087;2.18944;0.5017744;2.09829;
637951450096985748;448.3936;2;1;2;0.6;1.8;899;2.22469410456062;0.8863269;1.656283;0.7540631;1.697037;-0.7794226;1.05;-0.7414495;1.173191;
637951450104987040;449.1933;2;1;2;0.6;1.8;800;2.5;-0.8863271;1.656283;-0.8278477;1.673417;0.8863269;1.656283;0.7540631;1.697037;
637951450112988836;449.993;2;1;2;0.6;1.8;800;2.5;0.779423;1.05;0.6992776;1.122136;-0.8863271;1.656283;-0.8278477;1.673417;
637951450120090431;450.7038;2;1;2;0.6;1.8;711;2.81293952180028;-0.5785094;2.18944;-0.4534571;2.046333;0.779423;1.05;0.6992776;1.122136;
637951450129080261;451.6031;2;1;2;0.6;1.8;899;2.22469410456062;0.3078185;0.6542768;0.1966714;0.737301;-0.5785094;2.18944;-0.4534571;2.046333;
637951450146422989;453.3446;2;1;3;0.2;1.4;1042;2.87907869481766;-0.2394138;0.8422151;-0.2998145;0.9217936;0;2.2;-0.008727238;2.176377;
637951450156076553;454.302;2;1;3;0.2;1.4;957;3.13479623824451;0.4499513;2.036231;0.4169677;2.069473;-0.2394138;0.8422151;-0.2998145;0.9217936;
637951450166076842;455.3018;2;1;3;0.2;1.4;1000;3;-0.6062176;1.15;-0.625965;1.201652;0.4499513;2.036231;0.4169677;2.069473;
637951450175069140;456.2012;2;1;3;0.2;1.4;900;3.33333333333333;0.6893654;1.621554;0.6068294;1.625996;-0.6062176;1.15;-0.625965;1.201652;
637951450195062939;458.2003;2;1;3;0.2;1.4;1999;1.50075037518759;-0.6893655;1.621553;-0.6376853;1.614736;0.6893654;1.621554;0.6068294;1.625996;
637951450205105191;459.2049;2;1;3;0.2;1.4;1005;2.98507462686567;0.6062179;1.15;0.6375059;1.192542;-0.6893655;1.621553;-0.6376853;1.614736;
637951450215057430;460.2;2;1;3;0.2;1.4;995;3.01507537688442;-0.4499517;2.036231;-0.3639502;2.043129;0.6062179;1.15;0.6375059;1.192542;
637951450225159698;461.2105;2;1;3;0.2;1.4;1010;2.97029702970297;0.2394144;0.8422153;0.2499621;0.8742381;-0.4499517;2.036231;-0.3639502;2.043129;
637951450238152619;462.5096;2;1;1.5;1.1;2;595;2.52100840336134;-0.3420197;0.5603072;-0.3265301;1.011683;0;2.5;0.04048314;2.11817;
637951450244143962;463.1089;2;1;1.5;1.1;2;599;2.50417362270451;0.6427875;2.266045;0.4407569;2.005994;-0.3420197;0.5603072;-0.3265301;1.011683;
637951450251145535;463.8093;2;1;1.5;1.1;2;700;2.14285714285714;-0.8660251;0.9999995;-0.7597442;1.326832;0.6427875;2.266045;0.4407569;2.005994;
637951450257136873;464.4088;2;1;1.5;1.1;2;599;2.50417362270451;0.9848077;1.673648;0.7493463;1.780131;-0.8660251;0.9999995;-0.7597442;1.326832;
637951450263148231;465.0088;2;1;1.5;1.1;2;600;2.5;-0.9848078;1.673648;-0.6636059;1.772125;0.9848077;1.673648;0.7493463;1.780131;
637951450268139351;465.5082;2;1;1.5;1.1;2;499;3.0060120240481;0.8660256;1;0.8437554;1.359965;-0.9848078;1.673648;-0.6636059;1.772125;
637951450274130697;466.1079;2;1;1.5;1.1;2;600;2.5;-0.6427882;2.266044;-0.4055262;1.809985;0.8660256;1;0.8437554;1.359965;
637951450280072030;466.7012;2;1;1.5;1.1;2;593;2.52951096121417;0.3420205;0.5603075;0.2720923;0.7884055;-0.6427882;2.266044;-0.4055262;1.809985;
637951450308118330;469.5063;2;1;4;0.1;1.4;1100;3.63636363636364;-0.2394138;0.8422151;-0.2218434;0.8619624;0;2.2;-0.02815861;2.158819;
637951450318110575;470.506;2;1;4;0.1;1.4;1000;4;0.4499513;2.036231;0.4522232;2.081064;-0.2394138;0.8422151;-0.2218434;0.8619624;
637951450331333545;471.8354;2;1;4;0.1;1.4;1329;3.00978179082017;-0.6062176;1.15;-0.5573496;1.160271;0.4499513;2.036231;0.4522232;2.081064;
637951450351208007;473.8154;2;1;4;0.1;1.4;1980;2.02020202020202;0.6893654;1.621554;0.6655182;1.616993;-0.6062176;1.15;-0.5573496;1.160271;
637951450367201602;475.4147;2;1;4;0.1;1.4;1599;2.50156347717323;-0.6893655;1.621553;-0.6711391;1.587554;0.6893654;1.621554;0.6655182;1.616993;
637951450384195417;477.114;2;1;4;0.1;1.4;1699;2.35432607416127;0.6062179;1.15;0.5855088;1.161943;-0.6893655;1.621553;-0.6711391;1.587554;
637951450402189460;478.9133;2;1;4;0.1;1.4;1799;2.22345747637576;-0.4499517;2.036231;-0.4783553;2.037582;0.6062179;1.15;0.5855088;1.161943;
637951450414182151;480.1127;2;1;4;0.1;1.4;1199;3.33611342785655;0.2394144;0.8422153;0.2126871;0.8823011;-0.4499517;2.036231;-0.4783553;2.037582;
637951451120411472;550.7361;2;2;4.5;0.1;2.2;2299;1.9573727707699;-0.3762217;0.4663379;-0.3744499;0.4919502;0;2.6;0.02416488;2.557105;
637951451133404395;552.0354;2;2;4.5;0.1;2.2;1299;3.46420323325635;0.7070663;2.342649;0.6694819;2.331964;-0.3762217;0.4663379;-0.3744499;0.4919502;
637951451156389554;554.3342;2;2;4.5;0.1;2.2;2299;1.9573727707699;-0.9526277;0.9499994;-0.9393531;0.9587691;0.7070663;2.342649;0.6694819;2.331964;
637951451179384720;556.6332;2;2;4.5;0.1;2.2;2299;1.9573727707699;1.083289;1.691013;1.060812;1.718836;-0.9526277;0.9499994;-0.9393531;0.9587691;
637951451205380558;559.2322;2;2;4.5;0.1;2.2;2599;1.73143516737207;-1.083289;1.691012;-1.077779;1.683078;1.083289;1.691013;1.060812;1.718836;
637951451231362181;561.831;2;2;4.5;0.1;2.2;2599;1.73143516737207;0.9526281;0.9500003;0.9694785;0.9659117;-1.083289;1.691012;-1.077779;1.683078;
637951451248466019;563.5414;2;2;4.5;0.1;2.2;1711;2.63004091174752;-0.7070671;2.342648;-0.7035307;2.317708;0.9526281;0.9500003;0.9694785;0.9659117;
637951451263460824;565.0406;2;2;4.5;0.1;2.2;1499;3.00200133422282;0.3762226;0.4663382;0.3610267;0.5139273;-0.7070671;2.342648;-0.7035307;2.317708;
637951451281450342;566.8397;2;2;2;0.6;1.8;800;2.5;-0.3078177;0.6542765;-0.2461865;0.8861275;0;2.4;0.07326537;2.318818;
637951451289452138;567.6398;2;2;2;0.6;1.8;800;2.5;0.5785087;2.18944;0.4878842;2.101348;-0.3078177;0.6542765;-0.2461865;0.8861275;
637951451299444384;568.6389;2;2;2;0.6;1.8;999;2.002002002002;-0.7794226;1.05;-0.6873289;1.241174;0.5785087;2.18944;0.4878842;2.101348;
637951451307446184;569.4387;2;2;2;0.6;1.8;800;2.5;0.8863269;1.656283;0.8020995;1.634612;-0.7794226;1.05;-0.6873289;1.241174;
637951451317438429;570.4382;2;2;2;0.6;1.8;999;2.002002002002;-0.8863271;1.656283;-0.8721958;1.684214;0.8863269;1.656283;0.8020995;1.634612;
637951451326430446;571.3375;2;2;2;0.6;1.8;899;2.22469410456062;0.779423;1.05;0.7112012;1.150139;-0.8863271;1.656283;-0.8721958;1.684214;
637951451336422689;572.3372;2;2;2;0.6;1.8;1000;2;-0.5785094;2.18944;-0.5104022;2.089164;0.779423;1.05;0.7112012;1.150139;
637951451345424712;573.2368;2;2;2;0.6;1.8;900;2.22222222222222;0.3078185;0.6542768;0.3185039;0.8390846;-0.5785094;2.18944;-0.5104022;2.089164;
637951451367409647;575.4356;2;2;3.5;0.2;2;1199;2.91909924937448;-0.3420197;0.5603072;-0.3182122;0.6394135;0;2.5;0.01777637;2.55721;
637951451378412120;576.5352;2;2;3.5;0.2;2;1100;3.18181818181818;0.6427875;2.266045;0.5822536;2.22347;-0.3420197;0.5603072;-0.3182122;0.6394135;
637951451391515064;577.8458;2;2;3.5;0.2;2;1311;2.6697177726926;-0.8660251;0.9999995;-0.9089872;1.077079;0.6427875;2.266045;0.5822536;2.22347;
637951451404507981;579.1451;2;2;3.5;0.2;2;1299;2.69438029253272;0.9848077;1.673648;0.9308253;1.69718;-0.8660251;0.9999995;-0.9089872;1.077079;
637951451415510451;580.245;2;2;3.5;0.2;2;1100;3.18181818181818;-0.9848078;1.673648;-0.9917135;1.697312;0.9848077;1.673648;0.9308253;1.69718;
637951451427503145;581.4442;2;2;3.5;0.2;2;1199;2.91909924937448;0.8660256;1;0.8122303;1.021217;-0.9848078;1.673648;-0.9917135;1.697312;
637951451436495164;582.3438;2;2;3.5;0.2;2;900;3.88888888888889;-0.6427882;2.266044;-0.645513;2.250922;0.8660256;1;0.8122303;1.021217;
637951451448487861;583.543;2;2;3.5;0.2;2;1199;2.91909924937448;0.3420205;0.5603075;0.3328472;0.658396;-0.6427882;2.266044;-0.645513;2.250922;
637951451465481675;585.2423;2;2;2.5;0.3;1.4;700;3.57142857142857;-0.2394138;0.8422151;-0.2028306;0.9074306;0;2.2;0.008567099;2.110849;
637951451472473245;585.9423;2;2;2.5;0.3;1.4;700;3.57142857142857;0.4499513;2.036231;0.4065707;1.932989;-0.2394138;0.8422151;-0.2028306;0.9074306;
637951451479474817;586.6418;2;2;2.5;0.3;1.4;700;3.57142857142857;-0.6062176;1.15;-0.5760043;1.268277;0.4499513;2.036231;0.4065707;1.932989;
637951451486466389;587.3414;2;2;2.5;0.3;1.4;700;3.57142857142857;0.6893654;1.621554;0.6173031;1.644861;-0.6062176;1.15;-0.5760043;1.268277;
637951451493467961;588.0412;2;2;2.5;0.3;1.4;700;3.57142857142857;-0.6893655;1.621553;-0.6007282;1.651911;0.6893654;1.621554;0.6173031;1.644861;
637951451500459531;588.7408;2;2;2.5;0.3;1.4;700;3.57142857142857;0.6062179;1.15;0.6872615;1.222415;-0.6893655;1.621553;-0.6007282;1.651911;
637951451506460884;589.3408;2;2;2.5;0.3;1.4;600;4.16666666666667;-0.4499517;2.036231;-0.3565418;1.961499;0.6062179;1.15;0.6872615;1.222415;
637951451513462452;590.0403;2;2;2.5;0.3;1.4;700;3.57142857142857;0.2394144;0.8422153;0.2158014;0.9159976;-0.4499517;2.036231;-0.3565418;1.961499;
637951451562543476;594.9492;2;2;4;0.1;1.4;1399;2.85918513223731;-0.2394138;0.8422151;-0.237693;0.8676603;0;2.2;0.01554207;2.165811;
637951451576538592;596.3486;2;2;4;0.1;1.4;1399;2.85918513223731;0.4499513;2.036231;0.4486809;2.008179;-0.2394138;0.8422151;-0.237693;0.8676603;
637951451592532186;597.948;2;2;4;0.1;1.4;1599;2.50156347717323;-0.6062176;1.15;-0.5705967;1.118153;0.4499513;2.036231;0.4486809;2.008179;
637951451603524652;599.0471;2;2;4;0.1;1.4;1099;3.63967242948135;0.6893654;1.621554;0.6934093;1.592276;-0.6062176;1.15;-0.5705967;1.118153;
637951451612526676;599.9471;2;2;4;0.1;1.4;900;4.44444444444444;-0.6893655;1.621553;-0.6491222;1.636341;0.6893654;1.621554;0.6934093;1.592276;
637951451622519936;600.9467;2;2;4;0.1;1.4;1000;4;0.6062179;1.15;0.626186;1.12238;-0.6893655;1.621553;-0.6491222;1.636341;
637951451639510969;602.6454;2;2;4;0.1;1.4;1699;2.35432607416127;-0.4499517;2.036231;-0.472831;2.006387;0.6062179;1.15;0.626186;1.12238;
637951451649503214;603.6449;2;2;4;0.1;1.4;999;4.004004004004;0.2394144;0.8422153;0.2441415;0.8695997;-0.4499517;2.036231;-0.472831;2.006387;
637951451662496130;604.9446;2;2;1.5;1.1;2;600;2.5;-0.3420197;0.5603072;-0.2493144;1.059791;0;2.5;0.0007558912;2.145366;
637951451667497256;605.4444;2;2;1.5;1.1;2;500;3;0.6427875;2.266045;0.4255579;2.050591;-0.3420197;0.5603072;-0.2493144;1.059791;
637951451673498604;606.0442;2;2;1.5;1.1;2;600;2.5;-0.8660251;0.9999995;-0.6256793;1.412283;0.6427875;2.266045;0.4255579;2.050591;
637951451680600189;606.7546;2;2;1.5;1.1;2;710;2.11267605633803;0.9848077;1.673648;0.5692758;1.707926;-0.8660251;0.9999995;-0.6256793;1.412283;
637951451685601322;607.2548;2;2;1.5;1.1;2;500;3;-0.9848078;1.673648;-0.4678869;1.776465;0.9848077;1.673648;0.5692758;1.707926;
637951451692592890;607.954;2;2;1.5;1.1;2;699;2.14592274678112;0.8660256;1;0.4453;1.230881;-0.9848078;1.673648;-0.4678869;1.776465;
637951451698594238;608.5541;2;2;1.5;1.1;2;600;2.5;-0.6427882;2.266044;-0.2967406;2.002622;0.8660256;1;0.4453;1.230881;
637951451704595584;609.1537;2;2;1.5;1.1;2;600;2.5;0.3420205;0.5603075;0.11955;1.050391;-0.6427882;2.266044;-0.2967406;2.002622;
637951451737582996;612.4526;2;2;3;0.2;1.4;1000;3;-0.2394138;0.8422151;-0.2070575;0.9041101;0;2.2;-0.01035322;2.166141;
637951451746575016;613.3521;2;2;3;0.2;1.4;899;3.33704115684093;0.4499513;2.036231;0.4075276;2.061463;-0.2394138;0.8422151;-0.2070575;0.9041101;
637951451756567259;614.3514;2;2;3;0.2;1.4;999;3.003003003003;-0.6062176;1.15;-0.572412;1.20669;0.4499513;2.036231;0.4075276;2.061463;
637951451766569505;615.351;2;2;3;0.2;1.4;1000;3;0.6893654;1.621554;0.6258921;1.648447;-0.6062176;1.15;-0.572412;1.20669;
637951451775561524;616.2506;2;2;3;0.2;1.4;900;3.33333333333333;-0.6893655;1.621553;-0.7236506;1.599002;0.6893654;1.621554;0.6258921;1.648447;
637951451784553544;617.1502;2;2;3;0.2;1.4;900;3.33333333333333;0.6062179;1.15;0.5544565;1.218596;-0.6893655;1.621553;-0.7236506;1.599002;
637951451792555343;617.9499;2;2;3;0.2;1.4;800;3.75;-0.4499517;2.036231;-0.5068976;2.068336;0.6062179;1.15;0.5544565;1.218596;
637951451808548933;619.5491;2;2;3;0.2;1.4;1599;1.87617260787993;0.2394144;0.8422153;0.1939306;0.8993387;-0.4499517;2.036231;-0.5068976;2.068336;
637951452502837422;688.9781;2;3;2.5;0.3;1.4;1105;2.26244343891403;-0.2394138;0.8422151;-0.1768027;0.9224851;0;2.2;0.02219208;2.110965;
637951452510839217;689.7779;2;3;2.5;0.3;1.4;800;3.125;0.4499513;2.036231;0.4078843;2.030404;-0.2394138;0.8422151;-0.1768027;0.9224851;
637951452520881470;690.7831;2;3;2.5;0.3;1.4;1005;2.48756218905473;-0.6062176;1.15;-0.4765693;1.205575;0.4499513;2.036231;0.4078843;2.030404;
637951452530883719;691.7826;2;3;2.5;0.3;1.4;999;2.5025025025025;0.6893654;1.621554;0.6113415;1.59869;-0.6062176;1.15;-0.4765693;1.205575;
637951452538885515;692.5826;2;3;2.5;0.3;1.4;800;3.125;-0.6893655;1.621553;-0.6941755;1.620939;0.6893654;1.621554;0.6113415;1.59869;
637951452549877985;693.6822;2;3;2.5;0.3;1.4;1100;2.27272727272727;0.6062179;1.15;0.4934639;1.17697;-0.6893655;1.621553;-0.6941755;1.620939;
637951452557869779;694.4818;2;3;2.5;0.3;1.4;800;3.125;-0.4499517;2.036231;-0.3884438;2.046781;0.6062179;1.15;0.4934639;1.17697;
637951452566911813;695.3862;2;3;2.5;0.3;1.4;904;2.76548672566372;0.2394144;0.8422153;0.2017944;0.8504161;-0.4499517;2.036231;-0.3884438;2.046781;
637951452595858319;698.2801;2;3;4;0.1;1.4;1600;2.5;-0.2394138;0.8422151;-0.2169088;0.8748481;0;2.2;0.01187518;2.217378;
637951452611846948;699.8792;2;3;4;0.1;1.4;1599;2.50156347717323;0.4499513;2.036231;0.4366924;2.025892;-0.2394138;0.8422151;-0.2169088;0.8748481;
637951452633839055;702.0782;2;3;4;0.1;1.4;2199;1.81900864029104;-0.6062176;1.15;-0.5845724;1.170343;0.4499513;2.036231;0.4366924;2.025892;
637951452646831978;703.3775;2;3;4;0.1;1.4;1299;3.07929176289453;0.6893654;1.621554;0.6461619;1.599405;-0.6062176;1.15;-0.5845724;1.170343;
637951452669938267;705.6878;2;3;4;0.1;1.4;2310;1.73160173160173;-0.6893655;1.621553;-0.6602603;1.602176;0.6893654;1.621554;0.6461619;1.599405;
637951452684928252;707.1868;2;3;4;0.1;1.4;1499;2.66844563042028;0.6062179;1.15;0.5689008;1.158397;-0.6893655;1.621553;-0.6602603;1.602176;
637951452697911173;708.4861;2;3;4;0.1;1.4;1299;3.07929176289453;-0.4499517;2.036231;-0.431792;2.025617;0.6062179;1.15;0.5689008;1.158397;
637951452709023669;709.5967;2;3;4;0.1;1.4;1111;3.6003600360036;0.2394144;0.8422153;0.2748296;0.8317161;-0.4499517;2.036231;-0.431792;2.025617;
637951452743011303;712.9956;2;3;4.5;0.1;2.2;2169;2.0746887966805;-0.3762217;0.4663379;-0.3578342;0.4740967;0;2.6;0.02436898;2.556463;
637951452756054232;714.2999;2;3;4.5;0.1;2.2;1304;3.45092024539877;0.7070663;2.342649;0.6789138;2.322859;-0.3762217;0.4663379;-0.3578342;0.4740967;
637951452772998039;715.9938;2;3;4.5;0.1;2.2;1694;2.65643447461629;-0.9526277;0.9499994;-0.9569657;0.9318074;0.7070663;2.342649;0.6789138;2.322859;
637951452791982301;717.8931;2;3;4.5;0.1;2.2;1899;2.3696682464455;1.083289;1.691013;1.060215;1.662092;-0.9526277;0.9499994;-0.9569657;0.9318074;
637951452806095472;719.3037;2;3;4.5;0.1;2.2;1411;3.18922749822821;-1.083289;1.691012;-1.095369;1.686707;1.083289;1.691013;1.060215;1.662092;
637951452822079066;720.9026;2;3;4.5;0.1;2.2;1599;2.81425891181989;0.9526281;0.9500003;0.935858;0.9220352;-1.083289;1.691012;-1.095369;1.686707;
637951452835071981;722.2021;2;3;4.5;0.1;2.2;1299;3.46420323325635;-0.7070671;2.342648;-0.7023929;2.347624;0.9526281;0.9500003;0.935858;0.9220352;
637951452849075124;723.6016;2;3;4.5;0.1;2.2;1399;3.21658327376698;0.3762226;0.4663382;0.3396846;0.4987262;-0.7070671;2.342648;-0.7023929;2.347624;
637951452867059162;725.4006;2;3;1.5;1.1;2;799;1.87734668335419;-0.3420197;0.5603072;-0.1379095;1.008081;0;2.5;0.06618626;2.20945;
637951452874060738;726.1006;2;3;1.5;1.1;2;700;2.14285714285714;0.6427875;2.266045;0.4651524;1.981963;-0.3420197;0.5603072;-0.1379095;1.008081;
637951452881052306;726.8002;2;3;1.5;1.1;2;700;2.14285714285714;-0.8660251;0.9999995;-0.5670845;1.38615;0.6427875;2.266045;0.4651524;1.981963;
637951452888393957;727.5411;2;3;1.5;1.1;2;741;2.02429149797571;0.9848077;1.673648;0.4537554;1.556658;-0.8660251;0.9999995;-0.5670845;1.38615;
637951452895325512;728.2341;2;3;1.5;1.1;2;693;2.16450216450216;-0.9848078;1.673648;-0.4417452;1.684533;0.9848077;1.673648;0.4537554;1.556658;
637951452901046797;728.7993;2;3;1.5;1.1;2;565;2.65486725663717;0.8660256;1;0.4940829;1.261702;-0.9848078;1.673648;-0.4417452;1.684533;
637951452907038146;729.3989;2;3;1.5;1.1;2;600;2.5;-0.6427882;2.266044;-0.2335822;1.991635;0.8660256;1;0.4940829;1.261702;
637951452913049493;729.999;2;3;1.5;1.1;2;600;2.5;0.3420205;0.5603075;0.2113045;0.9785879;-0.6427882;2.266044;-0.2335822;1.991635;
637951452937034883;732.3978;2;3;3;0.2;1.4;1100;2.72727272727273;-0.2394138;0.8422151;-0.1969625;0.9217217;0;2.2;-0.01399036;2.154269;
637951452945076687;733.2024;2;3;3;0.2;1.4;805;3.72670807453416;0.4499513;2.036231;0.4364704;2.027344;-0.2394138;0.8422151;-0.1969625;0.9217217;
637951452957079383;734.4021;2;3;3;0.2;1.4;1200;2.5;-0.6062176;1.15;-0.5513875;1.215802;0.4499513;2.036231;0.4364704;2.027344;
637951452967131642;735.4072;2;3;3;0.2;1.4;1005;2.98507462686567;0.6893654;1.621554;0.6850796;1.609418;-0.6062176;1.15;-0.5513875;1.215802;
637951452978128817;736.5072;2;3;3;0.2;1.4;1100;2.72727272727273;-0.6893655;1.621553;-0.7201585;1.606617;0.6893654;1.621554;0.6850796;1.609418;
637951452989119039;737.6066;2;3;3;0.2;1.4;1099;2.72975432211101;0.6062179;1.15;0.5553865;1.172059;-0.6893655;1.621553;-0.7201585;1.606617;
637951452997110833;738.4061;2;3;3;0.2;1.4;799;3.75469336670839;-0.4499517;2.036231;-0.5062713;2.019029;0.6062179;1.15;0.5553865;1.172059;
637951453016105101;740.3049;2;3;3;0.2;1.4;1899;1.57977883096367;0.2394144;0.8422153;0.2435489;0.8530027;-0.4499517;2.036231;-0.5062713;2.019029;
637951453039093369;742.6042;2;3;3.5;0.2;2;1194;2.93132328308208;-0.3420197;0.5603072;-0.3387499;0.6101766;0;2.5;-0.007377898;2.533535;
637951453051092642;743.8041;2;3;3.5;0.2;2;1200;2.91666666666667;0.6427875;2.266045;0.6158102;2.234567;-0.3420197;0.5603072;-0.3387499;0.6101766;
637951453070192413;745.7137;2;3;3.5;0.2;2;1910;1.83246073298429;-0.8660251;0.9999995;-0.8253327;1.041491;0.6427875;2.266045;0.6158102;2.234567;
637951453084183524;747.1134;2;3;3.5;0.2;2;1400;2.5;0.9848077;1.673648;0.9806198;1.722527;-0.8660251;0.9999995;-0.8253327;1.041491;
637951453105222887;749.2172;2;3;3.5;0.2;2;2104;1.66349809885932;-0.9848078;1.673648;-0.959621;1.673145;0.9848077;1.673648;0.9806198;1.722527;
637951453118176624;750.5117;2;3;3.5;0.2;2;1295;2.7027027027027;0.8660256;1;0.822201;1.001286;-0.9848078;1.673648;-0.959621;1.673145;
637951453129218355;751.6164;2;3;3.5;0.2;2;1105;3.16742081447964;-0.6427882;2.266044;-0.6859413;2.291384;0.8660256;1;0.822201;1.001286;
637951453142435208;752.9459;2;3;3.5;0.2;2;1329;2.63355906696764;0.3420205;0.5603075;0.269624;0.6277546;-0.6427882;2.266044;-0.6859413;2.291384;
637951453157148509;754.4098;2;3;2;0.6;1.8;694;2.88184438040346;-0.3078177;0.6542765;-0.2267856;0.8562319;0;2.4;-0.008258499;2.165971;
637951453164260105;755.1207;2;3;2;0.6;1.8;711;2.81293952180028;0.5785087;2.18944;0.4629092;2.023733;-0.3078177;0.6542765;-0.2267856;0.8562319;
637951453172261900;755.9207;2;3;2;0.6;1.8;800;2.5;-0.7794226;1.05;-0.5829554;1.168901;0.5785087;2.18944;0.4629092;2.023733;
637951453179193457;756.6136;2;3;2;0.6;1.8;693;2.88600288600289;0.8863269;1.656283;0.7800242;1.557548;-0.7794226;1.05;-0.5829554;1.168901;
637951453187245268;757.4195;2;3;2;0.6;1.8;806;2.48138957816377;-0.8863271;1.656283;-0.6329498;1.610894;0.8863269;1.656283;0.7800242;1.557548;
637951453194246841;758.1192;2;3;2;0.6;1.8;700;2.85714285714286;0.779423;1.05;0.6503461;1.176121;-0.8863271;1.656283;-0.6329498;1.610894;
637951453208179973;759.5123;2;3;2;0.6;1.8;1393;1.43575017946877;-0.5785094;2.18944;-0.4252091;2.212399;0.779423;1.05;0.6503461;1.176121;
637951453218232229;760.5181;2;3;2;0.6;1.8;1006;1.98807157057654;0.3078185;0.6542768;0.2098722;0.7714266;-0.5785094;2.18944;-0.4252091;2.212399;
637951454378710180;876.5654;2;4;3.5;0.2;2;1299;2.69438029253272;-0.3420197;0.5603072;-0.30426;0.5910451;0;2.5;0.05876141;2.544722;
637951454390819419;877.7759;2;4;3.5;0.2;2;1211;2.89017341040462;0.6427875;2.266045;0.6409923;2.285172;-0.3420197;0.5603072;-0.30426;0.5910451;
637951454402809920;878.9758;2;4;3.5;0.2;2;1200;2.91666666666667;-0.8660251;0.9999995;-0.8449623;1.007023;0.6427875;2.266045;0.6409923;2.285172;
637951454415799907;880.2747;2;4;3.5;0.2;2;1299;2.69438029253272;0.9848077;1.673648;0.9304161;1.665653;-0.8660251;0.9999995;-0.8449623;1.007023;
637951454427799113;881.4741;2;4;3.5;0.2;2;1200;2.91666666666667;-0.9848078;1.673648;-0.9570357;1.658632;0.9848077;1.673648;0.9304161;1.665653;
637951454440789840;882.7736;2;4;3.5;0.2;2;1299;2.69438029253272;0.8660256;1;0.7949908;1.061758;-0.9848078;1.673648;-0.9570357;1.658632;
637951454452780040;883.973;2;4;3.5;0.2;2;1199;2.91909924937448;-0.6427882;2.266044;-0.6606764;2.284419;0.8660256;1;0.7949908;1.061758;
637951454464779797;885.1723;2;4;3.5;0.2;2;1199;2.91909924937448;0.3420205;0.5603075;0.322817;0.5880048;-0.6427882;2.266044;-0.6606764;2.284419;
637951454480768566;886.7716;2;4;2;0.6;1.8;800;2.5;-0.3078177;0.6542765;-0.321711;0.8535804;0;2.4;-0.06563624;2.296155;
637951454488764812;887.5715;2;4;2;0.6;1.8;800;2.5;0.5785087;2.18944;0.4767312;2.168547;-0.3078177;0.6542765;-0.321711;0.8535804;
637951454496766603;888.3715;2;4;2;0.6;1.8;800;2.5;-0.7794226;1.05;-0.6943859;1.281391;0.5785087;2.18944;0.4767312;2.168547;
637951454504808415;889.1757;2;4;2;0.6;1.8;804;2.48756218905473;0.8863269;1.656283;0.7120932;1.629892;-0.7794226;1.05;-0.6943859;1.281391;
637951454511870008;889.8815;2;4;2;0.6;1.8;706;2.8328611898017;-0.8863271;1.656283;-0.7738706;1.674435;0.8863269;1.656283;0.7120932;1.629892;
637951454519861796;890.6812;2;4;2;0.6;1.8;800;2.5;0.779423;1.05;0.6771637;1.171362;-0.8863271;1.656283;-0.7738706;1.674435;
637951454527863662;891.4807;2;4;2;0.6;1.8;799;2.50312891113892;-0.5785094;2.18944;-0.4647614;2.004905;0.779423;1.05;0.6771637;1.171362;
637951454534859835;892.1805;2;4;2;0.6;1.8;700;2.85714285714286;0.3078185;0.6542768;0.09163566;0.7601593;-0.5785094;2.18944;-0.4647614;2.004905;
637951454569858471;895.6802;2;4;4.5;0.1;2.2;1501;2.99800133244504;-0.3762217;0.4663379;-0.3620835;0.4927727;0;2.6;-0.001775976;2.557034;
637951454584840127;897.1782;2;4;4.5;0.1;2.2;1498;3.00400534045394;0.7070663;2.342649;0.6655258;2.349729;-0.3762217;0.4663379;-0.3620835;0.4927727;
637951454604829699;899.1771;2;4;4.5;0.1;2.2;1999;2.25112556278139;-0.9526277;0.9499994;-0.91345;0.9780545;0.7070663;2.342649;0.6655258;2.349729;
637951454623821472;901.0764;2;4;4.5;0.1;2.2;1899;2.3696682464455;1.083289;1.691013;1.03354;1.685968;-0.9526277;0.9499994;-0.91345;0.9780545;
637951454650917560;903.7864;2;4;4.5;0.1;2.2;2710;1.66051660516605;-1.083289;1.691012;-1.053832;1.669624;1.083289;1.691013;1.03354;1.685968;
637951454667911377;905.4857;2;4;4.5;0.1;2.2;1699;2.64861683343143;0.9526281;0.9500003;0.9276733;0.9860982;-1.083289;1.691012;-1.053832;1.669624;
637951454680904294;906.785;2;4;4.5;0.1;2.2;1299;3.46420323325635;-0.7070671;2.342648;-0.7163112;2.343238;0.9526281;0.9500003;0.9276733;0.9860982;
637951454697898117;908.4845;2;4;4.5;0.1;2.2;1700;2.64705882352941;0.3762226;0.4663382;0.3970902;0.4742151;-0.7070671;2.342648;-0.7163112;2.343238;
637951454716882374;910.3831;2;4;2.5;0.3;1.4;969;2.57997936016512;-0.2394138;0.8422151;-0.2927822;0.8522434;0;2.2;0.01737713;2.054919;
637951454725879969;911.2828;2;4;2.5;0.3;1.4;900;2.77777777777778;0.4499513;2.036231;0.3897673;1.989658;-0.2394138;0.8422151;-0.2927822;0.8522434;
637951454740879450;912.7825;2;4;2.5;0.3;1.4;1500;1.66666666666667;-0.6062176;1.15;-0.4938814;1.230379;0.4499513;2.036231;0.3897673;1.989658;
637951454752869660;913.9816;2;4;2.5;0.3;1.4;1199;2.08507089241034;0.6893654;1.621554;0.602954;1.63509;-0.6062176;1.15;-0.4938814;1.230379;
637951454763868281;915.0812;2;4;2.5;0.3;1.4;1100;2.27272727272727;-0.6893655;1.621553;-0.6083916;1.598756;0.6893654;1.621554;0.602954;1.63509;
637951454774859392;916.1806;2;4;2.5;0.3;1.4;1099;2.27479526842584;0.6062179;1.15;0.5218772;1.23087;-0.6893655;1.621553;-0.6083916;1.598756;
637951454783859371;917.0801;2;4;2.5;0.3;1.4;900;2.77777777777778;-0.4499517;2.036231;-0.4747836;1.986169;0.6062179;1.15;0.5218772;1.23087;
637951454793859350;918.0802;2;4;2.5;0.3;1.4;1000;2.5;0.2394144;0.8422153;0.2036216;0.8728077;-0.4499517;2.036231;-0.4747836;1.986169;
637951454816951673;920.3896;2;4;4;0.1;1.4;1110;3.6036036036036;-0.2394138;0.8422151;-0.2607339;0.8317575;0;2.2;-0.009933705;2.164797;
637951454827944190;921.4894;2;4;4;0.1;1.4;1100;3.63636363636364;0.4499513;2.036231;0.4272012;2.029989;-0.2394138;0.8422151;-0.2607339;0.8317575;
637951454850932710;923.7882;2;4;4;0.1;1.4;2299;1.73988690735102;-0.6062176;1.15;-0.5918179;1.151829;0.4499513;2.036231;0.4272012;2.029989;
637951454866923997;925.3874;2;4;4;0.1;1.4;1599;2.50156347717323;0.6893654;1.621554;0.6693611;1.599951;-0.6062176;1.15;-0.5918179;1.151829;
637951454878928139;926.587;2;4;4;0.1;1.4;1200;3.33333333333333;-0.6893655;1.621553;-0.6759989;1.628218;0.6893654;1.621554;0.6693611;1.599951;
637951454892959190;927.9901;2;4;4;0.1;1.4;1403;2.85103349964362;0.6062179;1.15;0.5571275;1.159357;-0.6893655;1.621553;-0.6759989;1.628218;
637951454921019736;930.7964;2;4;4;0.1;1.4;2806;1.42551674982181;-0.4499517;2.036231;-0.4597386;1.992513;0.6062179;1.15;0.5571275;1.159357;
637951454933014932;931.9957;2;4;4;0.1;1.4;1199;3.33611342785655;0.2394144;0.8422153;0.2289788;0.8573716;-0.4499517;2.036231;-0.4597386;1.992513;
637951454957050331;934.4;2;4;1.5;1.1;2;1594;0.941028858218319;-0.3420197;0.5603072;-0.405369;0.8600075;0;2.5;0.07797523;2.180816;
637951454965112143;935.2054;2;4;1.5;1.1;2;805;1.86335403726708;0.6427875;2.266045;0.4223362;2.206338;-0.3420197;0.5603072;-0.405369;0.8600075;
637951454974044146;936.099;2;4;1.5;1.1;2;894;1.67785234899329;-0.8660251;0.9999995;-0.6165245;1.435943;0.6427875;2.266045;0.4223362;2.206338;
637951454983106181;937.0052;2;4;1.5;1.1;2;906;1.65562913907285;0.9848077;1.673648;0.5882443;1.737142;-0.8660251;0.9999995;-0.6165245;1.435943;
637951454991097979;937.8044;2;4;1.5;1.1;2;799;1.87734668335419;-0.9848078;1.673648;-0.58702;1.734957;0.9848077;1.673648;0.5882443;1.737142;
637951455000099998;938.7036;2;4;1.5;1.1;2;899;1.66852057842047;0.8660256;1;0.5131285;1.265174;-0.9848078;1.673648;-0.58702;1.734957;
637951455008091797;939.5034;2;4;1.5;1.1;2;800;1.875;-0.6427882;2.266044;-0.4598106;2.09653;0.8660256;1;0.5131285;1.265174;
637951455016083589;940.3031;2;4;1.5;1.1;2;800;1.875;0.3420205;0.5603075;0.09870739;0.9629477;-0.6427882;2.266044;-0.4598106;2.09653;
637951455046070326;943.3017;2;4;3;0.2;1.4;1399;2.14438884917798;-0.2394138;0.8422151;-0.2400249;0.8891958;0;2.2;-0.01956368;2.131585;
637951455056122587;944.3065;2;4;3;0.2;1.4;1005;2.98507462686567;0.4499513;2.036231;0.4003491;2.040015;-0.2394138;0.8422151;-0.2400249;0.8891958;
637951455069065491;945.6008;2;4;3;0.2;1.4;1294;2.31839258114374;-0.6062176;1.15;-0.5664422;1.11887;0.4499513;2.036231;0.4003491;2.040015;
637951455079057734;946.6005;2;4;3;0.2;1.4;1000;3;0.6893654;1.621554;0.6350626;1.63247;-0.6062176;1.15;-0.5664422;1.11887;
637951455089210012;947.616;2;4;3;0.2;1.4;1016;2.95275590551181;-0.6893655;1.621553;-0.6215849;1.620145;0.6893654;1.621554;0.6350626;1.63247;
637951455102162921;948.9103;2;4;3;0.2;1.4;1294;2.31839258114374;0.6062179;1.15;0.5375637;1.207127;-0.6893655;1.621553;-0.6215849;1.620145;
637951455112155167;949.9098;2;4;3;0.2;1.4;999;3.003003003003;-0.4499517;2.036231;-0.3958326;2.017636;0.6062179;1.15;0.5375637;1.207127;
637951455126148310;951.3091;2;4;3;0.2;1.4;1399;2.14438884917798;0.2394144;0.8422153;0.1840441;0.851488;-0.4499517;2.036231;-0.3958326;2.017636;
637951455827271745;1021.422;2;5;2;0.6;1.8;800;2.5;-0.3078177;0.6542765;-0.1978061;0.8896165;0;2.4;-0.08142608;2.370853;
637951455834273316;1022.121;2;5;2;0.6;1.8;699;2.86123032904149;0.5785087;2.18944;0.4721018;2.141737;-0.3078177;0.6542765;-0.1978061;0.8896165;
637951455842265112;1022.921;2;5;2;0.6;1.8;800;2.5;-0.7794226;1.05;-0.6382039;1.203476;0.5785087;2.18944;0.4721018;2.141737;
637951455849316693;1023.626;2;5;2;0.6;1.8;705;2.83687943262411;0.8863269;1.656283;0.8030294;1.741782;-0.7794226;1.05;-0.6382039;1.203476;
637951455856258255;1024.32;2;5;2;0.6;1.8;694;2.88184438040346;-0.8863271;1.656283;-0.6061211;1.715431;0.8863269;1.656283;0.8030294;1.741782;
637951455864250047;1025.12;2;5;2;0.6;1.8;799;2.50312891113892;0.779423;1.05;0.7167338;1.189012;-0.8863271;1.656283;-0.6061211;1.715431;
637951455872361871;1025.931;2;5;2;0.6;1.8;811;2.46609124537608;-0.5785094;2.18944;-0.4551376;2.055516;0.779423;1.05;0.7167338;1.189012;
637951455880353665;1026.73;2;5;2;0.6;1.8;799;2.50312891113892;0.3078185;0.6542768;0.3030532;0.8734581;-0.5785094;2.18944;-0.4551376;2.055516;
637951455900348157;1028.729;2;5;4;0.1;1.4;1100;3.63636363636364;-0.2394138;0.8422151;-0.2048531;0.8404077;0;2.2;0.0007622521;2.15247;
637951455916341749;1030.328;2;5;4;0.1;1.4;1599;2.50156347717323;0.4499513;2.036231;0.412706;2.00905;-0.2394138;0.8422151;-0.2048531;0.8404077;
637951455929334668;1031.628;2;5;4;0.1;1.4;1299;3.07929176289453;-0.6062176;1.15;-0.6100119;1.166677;0.4499513;2.036231;0.412706;2.00905;
637951455943327815;1033.027;2;5;4;0.1;1.4;1399;2.85918513223731;0.6893654;1.621554;0.6533051;1.602676;-0.6062176;1.15;-0.6100119;1.166677;
637951455956324590;1034.327;2;5;4;0.1;1.4;1299;3.07929176289453;-0.6893655;1.621553;-0.6633961;1.605512;0.6893654;1.621554;0.6533051;1.602676;
637951455975318852;1036.226;2;5;4;0.1;1.4;1899;2.10637177461822;0.6062179;1.15;0.6074638;1.157819;-0.6893655;1.621553;-0.6633961;1.605512;
637951455986311623;1037.326;2;5;4;0.1;1.4;1100;3.63636363636364;-0.4499517;2.036231;-0.485925;2.015662;0.6062179;1.15;0.6074638;1.157819;
637951455998307582;1038.525;2;5;4;0.1;1.4;1199;3.33611342785655;0.2394144;0.8422153;0.2429385;0.8644277;-0.4499517;2.036231;-0.485925;2.015662;
637951456016405669;1040.335;2;5;2.5;0.3;1.4;900;2.77777777777778;-0.2394138;0.8422151;-0.2226487;0.8762702;0;2.2;0.02696029;2.180961;
637951456025397687;1041.235;2;5;2.5;0.3;1.4;900;2.77777777777778;0.4499513;2.036231;0.4030276;1.99438;-0.2394138;0.8422151;-0.2226487;0.8762702;
637951456036400158;1042.334;2;5;2.5;0.3;1.4;1100;2.27272727272727;-0.6062176;1.15;-0.5579577;1.22431;0.4499513;2.036231;0.4030276;1.99438;
637951456045392179;1043.234;2;5;2.5;0.3;1.4;900;2.77777777777778;0.6893654;1.621554;0.5416465;1.60998;-0.6062176;1.15;-0.5579577;1.22431;
637951456063386223;1045.033;2;5;2.5;0.3;1.4;1799;1.38966092273485;-0.6893655;1.621553;-0.7417415;1.649695;0.6893654;1.621554;0.5416465;1.60998;
637951456073378460;1046.033;2;5;2.5;0.3;1.4;1000;2.5;0.6062179;1.15;0.506296;1.233234;-0.6893655;1.621553;-0.7417415;1.649695;
637951456082380492;1046.932;2;5;2.5;0.3;1.4;900;2.77777777777778;-0.4499517;2.036231;-0.3278085;2.036899;0.6062179;1.15;0.506296;1.233234;
637951456091372506;1047.832;2;5;2.5;0.3;1.4;899;2.78086763070078;0.2394144;0.8422153;0.1304737;0.8322126;-0.4499517;2.036231;-0.3278085;2.036899;
637951456118358567;1050.531;2;5;4.5;0.1;2.2;1499;3.00200133422282;-0.3762217;0.4663379;-0.3886478;0.505805;0;2.6;-0.02105079;2.581006;
637951456140353510;1052.73;2;5;4.5;0.1;2.2;2199;2.04638472032742;0.7070663;2.342649;0.6760405;2.329736;-0.3762217;0.4663379;-0.3886478;0.505805;
637951456154456675;1054.14;2;5;4.5;0.1;2.2;1410;3.19148936170213;-0.9526277;0.9499994;-0.9828471;0.9866105;0.7070663;2.342649;0.6760405;2.329736;
637951456167449586;1055.44;2;5;4.5;0.1;2.2;1300;3.46153846153846;1.083289;1.691013;1.058621;1.691007;-0.9526277;0.9499994;-0.9828471;0.9866105;
637951456181442738;1056.839;2;5;4.5;0.1;2.2;1399;3.21658327376698;-1.083289;1.691012;-1.058073;1.651278;1.083289;1.691013;1.058621;1.691007;
637951456201437225;1058.838;2;5;4.5;0.1;2.2;1999;2.25112556278139;0.9526281;0.9500003;0.9306733;0.9369901;-1.083289;1.691012;-1.058073;1.651278;
637951456218421042;1060.537;2;5;4.5;0.1;2.2;1699;2.64861683343143;-0.7070671;2.342648;-0.6867417;2.338922;0.9526281;0.9500003;0.9306733;0.9369901;
637951456239415757;1062.636;2;5;4.5;0.1;2.2;2099;2.14387803716055;0.3762226;0.4663382;0.384269;0.4876307;-0.7070671;2.342648;-0.6867417;2.338922;
637951456260410472;1064.735;2;5;3;0.2;1.4;999;3.003003003003;-0.2394138;0.8422151;-0.2410864;0.8031169;0;2.2;-0.005937871;2.202983;
637951456271402946;1065.835;2;5;3;0.2;1.4;1099;2.72975432211101;0.4499513;2.036231;0.4346691;2.001237;-0.2394138;0.8422151;-0.2410864;0.8031169;
637951456284390948;1067.134;2;5;3;0.2;1.4;1299;2.3094688221709;-0.6062176;1.15;-0.5742937;1.188128;0.4499513;2.036231;0.4346691;2.001237;
637951456299494364;1068.645;2;5;3;0.2;1.4;1510;1.98675496688742;0.6893654;1.621554;0.5937608;1.609075;-0.6062176;1.15;-0.5742937;1.188128;
637951456311497059;1069.844;2;5;3;0.2;1.4;1200;2.5;-0.6893655;1.621553;-0.6001951;1.627603;0.6893654;1.621554;0.5937608;1.609075;
637951456322488765;1070.943;2;5;3;0.2;1.4;1099;2.72975432211101;0.6062179;1.15;0.564352;1.187461;-0.6893655;1.621553;-0.6001951;1.627603;
637951456335483729;1072.243;2;5;3;0.2;1.4;1300;2.30769230769231;-0.4499517;2.036231;-0.4119672;2.024646;0.6062179;1.15;0.564352;1.187461;
637951456347482768;1073.442;2;5;3;0.2;1.4;1199;2.50208507089241;0.2394144;0.8422153;0.2112927;0.8874727;-0.4499517;2.036231;-0.4119672;2.024646;
637951456362526155;1074.947;2;5;1.5;1.1;2;705;2.12765957446809;-0.3420197;0.5603072;-0.1756733;1.028363;0;2.5;0.08790815;2.095273;
637951456369467715;1075.641;2;5;1.5;1.1;2;694;2.16138328530259;0.6427875;2.266045;0.4783925;1.999236;-0.3420197;0.5603072;-0.1756733;1.028363;
637951456377469510;1076.441;2;5;1.5;1.1;2;800;1.875;-0.8660251;0.9999995;-0.543061;1.389708;0.6427875;2.266045;0.4783925;1.999236;
637951456383570884;1077.051;2;5;1.5;1.1;2;610;2.45901639344262;0.9848077;1.673648;0.7267438;1.586897;-0.8660251;0.9999995;-0.543061;1.389708;
637951456389572228;1077.652;2;5;1.5;1.1;2;600;2.5;-0.9848078;1.673648;-0.6277091;1.707777;0.9848077;1.673648;0.7267438;1.586897;
637951456395573576;1078.252;2;5;1.5;1.1;2;600;2.5;0.8660256;1;0.4429497;1.341946;-0.9848078;1.673648;-0.6277091;1.707777;
637951456402565149;1078.951;2;5;1.5;1.1;2;699;2.14592274678112;-0.6427882;2.266044;-0.2943012;1.863782;0.8660256;1;0.4429497;1.341946;
637951456409876791;1079.689;2;5;1.5;1.1;2;738;2.03252032520325;0.3420205;0.5603075;0.2068902;1.091203;-0.6427882;2.266044;-0.2943012;1.863782;
637951456438543227;1082.549;2;5;3.5;0.2;2;1799;1.94552529182879;-0.3420197;0.5603072;-0.3168175;0.6258307;0;2.5;-0.06534987;2.437988;
637951456449545699;1083.649;2;5;3.5;0.2;2;1100;3.18181818181818;0.6427875;2.266045;0.5679443;2.231479;-0.3420197;0.5603072;-0.3168175;0.6258307;
637951456464549073;1085.149;2;5;3.5;0.2;2;1500;2.33333333333333;-0.8660251;0.9999995;-0.835798;1.040842;0.6427875;2.266045;0.5679443;2.231479;
637951456478532208;1086.548;2;5;3.5;0.2;2;1399;2.50178699070765;0.9848077;1.673648;0.9655927;1.668538;-0.8660251;0.9999995;-0.835798;1.040842;
637951456490754953;1087.777;2;5;3.5;0.2;2;1229;2.84784377542718;-0.9848078;1.673648;-1.066424;1.646278;0.9848077;1.673648;0.9655927;1.668538;
637951456503517821;1089.046;2;5;3.5;0.2;2;1269;2.75807722616233;0.8660256;1;0.8515324;1.037533;-0.9848078;1.673648;-1.066424;1.646278;
637951456516520742;1090.346;2;5;3.5;0.2;2;1300;2.69230769230769;-0.6427882;2.266044;-0.5914468;2.224507;0.8660256;1;0.8515324;1.037533;
637951456529613684;1091.656;2;5;3.5;0.2;2;1310;2.67175572519084;0.3420205;0.5603075;0.3356696;0.6524547;-0.6427882;2.266044;-0.5914468;2.224507;
637951457027726389;1141.467;2;6;3.5;0.2;2;1699;2.06003531489111;-0.3420197;0.5603072;-0.3186648;0.6019115;0;2.5;-0.00283584;2.482291;
637951457037718643;1142.466;2;6;3.5;0.2;2;999;3.5035035035035;0.6427875;2.266045;0.5698732;2.250367;-0.3420197;0.5603072;-0.3186648;0.6019115;
637951457051821802;1143.877;2;6;3.5;0.2;2;1410;2.4822695035461;-0.8660251;0.9999995;-0.8337437;1.011253;0.6427875;2.266045;0.5698732;2.250367;
637951457062813178;1144.976;2;6;3.5;0.2;2;1100;3.18181818181818;0.9848077;1.673648;0.9737655;1.688658;-0.8660251;0.9999995;-0.8337437;1.011253;
637951457072815421;1145.976;2;6;3.5;0.2;2;999;3.5035035035035;-0.9848078;1.673648;-0.9171654;1.657789;0.9848077;1.673648;0.9737655;1.688658;
637951457083807890;1147.076;2;6;3.5;0.2;2;1100;3.18181818181818;0.8660256;1;0.864211;0.9701154;-0.9848078;1.673648;-0.9171654;1.657789;
637951457093799413;1148.075;2;6;3.5;0.2;2;999;3.5035035035035;-0.6427882;2.266044;-0.5829331;2.281331;0.8660256;1;0.864211;0.9701154;
637951457104800001;1149.175;2;6;3.5;0.2;2;1100;3.18181818181818;0.3420205;0.5603075;0.3539245;0.6426239;-0.6427882;2.266044;-0.5829331;2.281331;
637951457117792917;1150.474;2;6;1.5;1.1;2;600;2.5;-0.3420197;0.5603072;-0.2121391;0.9795507;0;2.5;0.1417481;2.242426;
637951457122794040;1150.974;2;6;1.5;1.1;2;500;3;0.6427875;2.266045;0.4375294;2.03553;-0.3420197;0.5603072;-0.2121391;0.9795507;
637951457128785384;1151.573;2;6;1.5;1.1;2;599;2.50417362270451;-0.8660251;0.9999995;-0.676484;1.23397;0.6427875;2.266045;0.4375294;2.03553;
637951457133846521;1152.079;2;6;1.5;1.1;2;506;2.96442687747036;0.9848077;1.673648;0.6140852;1.739518;-0.8660251;0.9999995;-0.676484;1.23397;
637951457139787857;1152.673;2;6;1.5;1.1;2;595;2.52100840336134;-0.9848078;1.673648;-0.5992868;1.772472;0.9848077;1.673648;0.6140852;1.739518;
637951457145782254;1153.273;2;6;1.5;1.1;2;599;2.50417362270451;0.8660256;1;0.6974968;1.259035;-0.9848078;1.673648;-0.5992868;1.772472;
637951457151783600;1153.873;2;6;1.5;1.1;2;600;2.5;-0.6427882;2.266044;-0.3071012;2.044378;0.8660256;1;0.6974968;1.259035;
637951457157772912;1154.472;2;6;1.5;1.1;2;600;2.5;0.3420205;0.5603075;0.0909734;0.8494917;-0.6427882;2.266044;-0.3071012;2.044378;
637951457181765699;1156.871;2;6;4;0.1;1.4;1763;2.2688598979013;-0.2394138;0.8422151;-0.2270513;0.8436803;0;2.2;0.02052617;2.239102;
637951457193870194;1158.082;2;6;4;0.1;1.4;1210;3.30578512396694;0.4499513;2.036231;0.490872;2.015236;-0.2394138;0.8422151;-0.2270513;0.8436803;
637951457205922896;1159.286;2;6;4;0.1;1.4;1205;3.3195020746888;-0.6062176;1.15;-0.6415278;1.132438;0.4499513;2.036231;0.490872;2.015236;
637951457220856253;1160.78;2;6;4;0.1;1.4;1494;2.67737617135208;0.6893654;1.621554;0.6719384;1.588478;-0.6062176;1.15;-0.6415278;1.132438;
637951457230858502;1161.78;2;6;4;0.1;1.4;1000;4;-0.6893655;1.621553;-0.6957722;1.622352;0.6893654;1.621554;0.6719384;1.588478;
637951457244841639;1163.179;2;6;4;0.1;1.4;1399;2.85918513223731;0.6062179;1.15;0.5976858;1.13836;-0.6893655;1.621553;-0.6957722;1.622352;
637951457257834556;1164.479;2;6;4;0.1;1.4;1300;3.07692307692308;-0.4499517;2.036231;-0.4050244;2.05301;0.6062179;1.15;0.5976858;1.13836;
637951457275828601;1166.278;2;6;4;0.1;1.4;1799;2.22345747637576;0.2394144;0.8422153;0.2330189;0.8664391;-0.4499517;2.036231;-0.4050244;2.05301;
637951457289881760;1167.683;2;6;2;0.6;1.8;705;2.83687943262411;-0.3078177;0.6542765;-0.3245133;0.9226229;0;2.4;0.1111201;2.191415;
637951457296823312;1168.377;2;6;2;0.6;1.8;694;2.88184438040346;0.5785087;2.18944;0.5040712;2.099829;-0.3078177;0.6542765;-0.3245133;0.9226229;
637951457304815109;1169.176;2;6;2;0.6;1.8;800;2.5;-0.7794226;1.05;-0.7114796;1.227686;0.5785087;2.18944;0.5040712;2.099829;
637951457311816681;1169.876;2;6;2;0.6;1.8;700;2.85714285714286;0.8863269;1.656283;0.6381235;1.639383;-0.7794226;1.05;-0.7114796;1.227686;
637951457317818032;1170.476;2;6;2;0.6;1.8;600;3.33333333333333;-0.8863271;1.656283;-0.7190553;1.709398;0.8863269;1.656283;0.6381235;1.639383;
637951457323809376;1171.075;2;6;2;0.6;1.8;600;3.33333333333333;0.779423;1.05;0.5702722;1.225716;-0.8863271;1.656283;-0.7190553;1.709398;
637951457349915237;1173.686;2;6;2;0.6;1.8;2610;0.766283524904215;-0.5785094;2.18944;-0.4232832;2.045988;0.779423;1.05;0.5702722;1.225716;
637951457360997726;1174.794;2;6;2;0.6;1.8;1108;1.80505415162455;0.3078185;0.6542768;0.2564397;0.8187557;-0.5785094;2.18944;-0.4232832;2.045988;
637951457387893767;1177.484;2;6;4.5;0.1;2.2;1699;2.64861683343143;-0.3762217;0.4663379;-0.3551179;0.4902264;0;2.6;-0.01100716;2.589561;
637951457399936471;1178.689;2;6;4.5;0.1;2.2;1204;3.7375415282392;0.7070663;2.342649;0.6943689;2.304181;-0.3762217;0.4663379;-0.3551179;0.4902264;
637951457414877991;1180.182;2;6;4.5;0.1;2.2;1494;3.01204819277108;-0.9526277;0.9499994;-0.9169779;0.9589232;0.7070663;2.342649;0.6943689;2.304181;
637951457430880529;1181.782;2;6;4.5;0.1;2.2;1600;2.8125;1.083289;1.691013;1.061552;1.717712;-0.9526277;0.9499994;-0.9169779;0.9589232;
637951457450863651;1183.781;2;6;4.5;0.1;2.2;1999;2.25112556278139;-1.083289;1.691012;-1.060471;1.71027;1.083289;1.691013;1.061552;1.717712;
637951457465857021;1185.28;2;6;4.5;0.1;2.2;1499;3.00200133422282;0.9526281;0.9500003;0.9062909;0.9374677;-1.083289;1.691012;-1.060471;1.71027;
637951457480080216;1186.709;2;6;4.5;0.1;2.2;1429;3.14905528341498;-0.7070671;2.342648;-0.7265809;2.300787;0.9526281;0.9500003;0.9062909;0.9374677;
637951457498954453;1188.59;2;6;4.5;0.1;2.2;1880;2.3936170212766;0.3762226;0.4663382;0.3475348;0.4969177;-0.7070671;2.342648;-0.7265809;2.300787;
637951457515948272;1190.289;2;6;2.5;0.3;1.4;800;3.125;-0.2394138;0.8422151;-0.3281451;0.9151069;0;2.2;-0.02375989;2.187553;
637951457522939841;1190.989;2;6;2.5;0.3;1.4;699;3.57653791130186;0.4499513;2.036231;0.4855401;2.042165;-0.2394138;0.8422151;-0.3281451;0.9151069;
637951457544934780;1193.188;2;6;2.5;0.3;1.4;2199;1.1368804001819;-0.6062176;1.15;-0.5660287;1.222912;0.4499513;2.036231;0.4855401;2.042165;
637951457555927249;1194.287;2;6;2.5;0.3;1.4;1100;2.27272727272727;0.6893654;1.621554;0.5891313;1.678905;-0.6062176;1.15;-0.5660287;1.222912;
637951457564979281;1195.192;2;6;2.5;0.3;1.4;905;2.76243093922652;-0.6893655;1.621553;-0.7008089;1.655038;0.6893654;1.621554;0.5891313;1.678905;
637951457574921515;1196.186;2;6;2.5;0.3;1.4;994;2.51509054325956;0.6062179;1.15;0.5016267;1.214347;-0.6893655;1.621553;-0.7008089;1.655038;
637951457583963546;1197.091;2;6;2.5;0.3;1.4;905;2.76243093922652;-0.4499517;2.036231;-0.4322725;2.04957;0.6062179;1.15;0.5016267;1.214347;
637951457593905780;1198.086;2;6;2.5;0.3;1.4;995;2.51256281407035;0.2394144;0.8422153;0.1643025;0.9172386;-0.4499517;2.036231;-0.4322725;2.04957;
637951457611899821;1199.885;2;6;3;0.2;1.4;999;3.003003003003;-0.2394138;0.8422151;-0.2766996;0.874799;0;2.2;0.004177703;2.135937;
637951457621902068;1200.884;2;6;3;0.2;1.4;1000;3;0.4499513;2.036231;0.357736;2.005427;-0.2394138;0.8422151;-0.2766996;0.874799;
637951457633894762;1202.084;2;6;3;0.2;1.4;1200;2.5;-0.6062176;1.15;-0.5709267;1.220071;0.4499513;2.036231;0.357736;2.005427;
637951457642886782;1202.983;2;6;3;0.2;1.4;899;3.33704115684093;0.6893654;1.621554;0.5905548;1.634536;-0.6062176;1.15;-0.5709267;1.220071;
637951457652328901;1203.935;2;6;3;0.2;1.4;952;3.15126050420168;-0.6893655;1.621553;-0.5978553;1.583573;0.6893654;1.621554;0.5905548;1.634536;
637951457663041307;1204.999;2;6;3;0.2;1.4;1063;2.82220131702728;0.6062179;1.15;0.5488638;1.173175;-0.6893655;1.621553;-0.5978553;1.583573;
637951457670392957;1205.741;2;6;3;0.2;1.4;742;4.04312668463612;-0.4499517;2.036231;-0.352296;2.055;0.6062179;1.15;0.5488638;1.173175;
637951457680985341;1206.793;2;6;3;0.2;1.4;1052;2.85171102661597;0.2394144;0.8422153;0.2266714;0.8968095;-0.4499517;2.036231;-0.352296;2.055;
637951458311256399;1269.82;2;7;4;0.1;1.4;1000;4;-0.2394138;0.8422151;-0.2241386;0.8504713;0;2.2;0.01429847;2.170072;
637951458321248641;1270.819;2;7;4;0.1;1.4;999;4.004004004004;0.4499513;2.036231;0.4542597;2.042386;-0.2394138;0.8422151;-0.2241386;0.8504713;
637951458333241335;1272.018;2;7;4;0.1;1.4;1199;3.33611342785655;-0.6062176;1.15;-0.5705677;1.15417;0.4499513;2.036231;0.4542597;2.042386;
637951458344233802;1273.118;2;7;4;0.1;1.4;1100;3.63636363636364;0.6893654;1.621554;0.7001825;1.629328;-0.6062176;1.15;-0.5705677;1.15417;
637951458355226289;1274.218;2;7;4;0.1;1.4;1099;3.63967242948135;-0.6893655;1.621553;-0.6596015;1.608173;0.6893654;1.621554;0.7001825;1.629328;
637951458370222632;1275.717;2;7;4;0.1;1.4;1500;2.66666666666667;0.6062179;1.15;0.5900922;1.192373;-0.6893655;1.621553;-0.6596015;1.608173;
637951458382215319;1276.916;2;7;4;0.1;1.4;1199;3.33611342785655;-0.4499517;2.036231;-0.4417806;2.037301;0.6062179;1.15;0.5900922;1.192373;
637951458393257800;1278.021;2;7;4;0.1;1.4;1105;3.61990950226244;0.2394144;0.8422153;0.2097473;0.8590363;-0.4499517;2.036231;-0.4417806;2.037301;
637951458407210934;1279.415;2;7;1.5;1.1;2;595;2.52100840336134;-0.3420197;0.5603072;-0.1891604;0.9358611;0;2.5;0.02318856;2.224972;
637951458412262061;1279.921;2;7;1.5;1.1;2;505;2.97029702970297;0.6427875;2.266045;0.4332156;2.041151;-0.3420197;0.5603072;-0.1891604;0.9358611;
637951458418203404;1280.515;2;7;1.5;1.1;2;594;2.52525252525253;-0.8660251;0.9999995;-0.5808448;1.287935;0.6427875;2.266045;0.4332156;2.041151;
637951458424204753;1281.115;2;7;1.5;1.1;2;600;2.5;0.9848077;1.673648;0.6265458;1.634511;-0.8660251;0.9999995;-0.5808448;1.287935;
637951458429195873;1281.614;2;7;1.5;1.1;2;499;3.0060120240481;-0.9848078;1.673648;-0.6505986;1.692145;0.9848077;1.673648;0.6265458;1.634511;
637951458434307022;1282.125;2;7;1.5;1.1;2;511;2.93542074363992;0.8660256;1;0.5164685;1.265271;-0.9848078;1.673648;-0.6505986;1.692145;
637951458450300614;1283.725;2;7;1.5;1.1;2;1600;0.9375;-0.6427882;2.266044;-0.5523064;2.173507;0.8660256;1;0.5164685;1.265271;
637951458456291956;1284.324;2;7;1.5;1.1;2;599;2.50417362270451;0.3420205;0.5603075;0.1826313;0.9860353;-0.6427882;2.266044;-0.5523064;2.173507;
637951458474285998;1286.123;2;7;2;0.6;1.8;1199;1.66805671392827;-0.3078177;0.6542765;-0.2428349;0.8250463;0;2.4;0.04728433;2.344204;
637951458481277569;1286.823;2;7;2;0.6;1.8;699;2.86123032904149;0.5785087;2.18944;0.4493101;2.153386;-0.3078177;0.6542765;-0.2428349;0.8250463;
637951458488339156;1287.528;2;7;2;0.6;1.8;705;2.83687943262411;-0.7794226;1.05;-0.6124727;1.220701;0.5785087;2.18944;0.4493101;2.153386;
637951458495290716;1288.223;2;7;2;0.6;1.8;695;2.87769784172662;0.8863269;1.656283;0.6989748;1.680662;-0.7794226;1.05;-0.6124727;1.220701;
637951458501272062;1288.822;2;7;2;0.6;1.8;599;3.33889816360601;-0.8863271;1.656283;-0.6870885;1.695757;0.8863269;1.656283;0.6989748;1.680662;
637951458508273635;1289.522;2;7;2;0.6;1.8;700;2.85714285714286;0.779423;1.05;0.668231;1.187728;-0.8863271;1.656283;-0.6870885;1.695757;
637951458533259246;1292.021;2;7;2;0.6;1.8;2499;0.800320128051221;-0.5785094;2.18944;-0.5258022;2.134183;0.779423;1.05;0.668231;1.187728;
637951458541261043;1292.82;2;7;2;0.6;1.8;800;2.5;0.3078185;0.6542768;0.244086;0.8687634;-0.5785094;2.18944;-0.5258022;2.134183;
637951458560305318;1294.724;2;7;3;0.2;1.4;1164;2.57731958762887;-0.2394138;0.8422151;-0.2436108;0.9282342;0;2.2;-0.08712549;2.153659;
637951458570247554;1295.719;2;7;3;0.2;1.4;994;3.01810865191147;0.4499513;2.036231;0.4264343;2.049725;-0.2394138;0.8422151;-0.2436108;0.9282342;
637951458581240021;1296.818;2;7;3;0.2;1.4;1099;2.72975432211101;-0.6062176;1.15;-0.5761366;1.200427;0.4499513;2.036231;0.4264343;2.049725;
637951458591342290;1297.829;2;7;3;0.2;1.4;1011;2.9673590504451;0.6893654;1.621554;0.6130341;1.623609;-0.6062176;1.15;-0.5761366;1.200427;
637951458601344540;1298.828;2;7;3;0.2;1.4;999;3.003003003003;-0.6893655;1.621553;-0.659532;1.612102;0.6893654;1.621554;0.6130341;1.623609;
637951458614387466;1300.133;2;7;3;0.2;1.4;1305;2.29885057471264;0.6062179;1.15;0.5772886;1.221862;-0.6893655;1.621553;-0.659532;1.612102;
637951458624329703;1301.128;2;7;3;0.2;1.4;994;3.01810865191147;-0.4499517;2.036231;-0.3886768;2.026511;0.6062179;1.15;0.5772886;1.221862;
637951458633321721;1302.027;2;7;3;0.2;1.4;899;3.33704115684093;0.2394144;0.8422153;0.2492767;0.8432004;-0.4499517;2.036231;-0.3886768;2.026511;
637951458651315759;1303.826;2;7;3.5;0.2;2;999;3.5035035035035;-0.3420197;0.5603072;-0.3314469;0.5698633;0;2.5;0.02787926;2.409827;
637951458660257769;1304.72;2;7;3.5;0.2;2;894;3.91498881431767;0.6427875;2.266045;0.6270981;2.303439;-0.3420197;0.5603072;-0.3314469;0.5698633;
637951458669309803;1305.625;2;7;3.5;0.2;2;905;3.86740331491713;-0.8660251;0.9999995;-0.7893842;1.040089;0.6427875;2.266045;0.6270981;2.303439;
637951458677301596;1306.425;2;7;3.5;0.2;2;800;4.375;0.9848077;1.673648;0.9147167;1.70564;-0.8660251;0.9999995;-0.7893842;1.040089;
637951458699297592;1308.624;2;7;3.5;0.2;2;2199;1.59163256025466;-0.9848078;1.673648;-0.9718332;1.70315;0.9848077;1.673648;0.9147167;1.70564;
637951458709289838;1309.624;2;7;3.5;0.2;2;1000;3.5;0.8660256;1;0.7980568;1.033432;-0.9848078;1.673648;-0.9718332;1.70315;
637951458720292309;1310.723;2;7;3.5;0.2;2;1100;3.18181818181818;-0.6427882;2.266044;-0.5976021;2.317493;0.8660256;1;0.7980568;1.033432;
637951458733274168;1312.022;2;7;3.5;0.2;2;1299;2.69438029253272;0.3420205;0.5603075;0.3362937;0.6239862;-0.6427882;2.266044;-0.5976021;2.317493;
637951458757281168;1314.422;2;7;4.5;0.1;2.2;1300;3.46153846153846;-0.3762217;0.4663379;-0.3660406;0.5049891;0;2.6;-0.02030198;2.586764;
637951458776378867;1316.332;2;7;4.5;0.1;2.2;1910;2.35602094240838;0.7070663;2.342649;0.6811953;2.304322;-0.3762217;0.4663379;-0.3660406;0.5049891;
637951458796363355;1318.331;2;7;4.5;0.1;2.2;1999;2.25112556278139;-0.9526277;0.9499994;-0.918887;0.9545014;0.7070663;2.342649;0.6811953;2.304322;
637951458809356274;1319.63;2;7;4.5;0.1;2.2;1299;3.46420323325635;1.083289;1.691013;1.077446;1.706219;-0.9526277;0.9499994;-0.918887;0.9545014;
637951458822349194;1320.929;2;7;4.5;0.1;2.2;1299;3.46420323325635;-1.083289;1.691012;-1.087597;1.661099;1.083289;1.691013;1.077446;1.706219;
637951458835352114;1322.229;2;7;4.5;0.1;2.2;1300;3.46153846153846;0.9526281;0.9500003;0.9535887;0.970616;-1.083289;1.691012;-1.087597;1.661099;
637951458850338087;1323.728;2;7;4.5;0.1;2.2;1499;3.00200133422282;-0.7070671;2.342648;-0.7240116;2.320337;0.9526281;0.9500003;0.9535887;0.970616;
637951458862331112;1324.928;2;7;4.5;0.1;2.2;1199;3.75312760633862;0.3762226;0.4663382;0.3953642;0.5052495;-0.7070671;2.342648;-0.7240116;2.320337;
637951458877326453;1326.427;2;7;2.5;0.3;1.4;599;4.17362270450751;-0.2394138;0.8422151;-0.1659653;0.8900887;0;2.2;0.01140262;2.168579;
637951458905422761;1329.237;2;7;2.5;0.3;1.4;2810;0.889679715302491;0.4499513;2.036231;0.3960489;2.045923;-0.2394138;0.8422151;-0.1659653;0.8900887;
637951458925407247;1331.236;2;7;2.5;0.3;1.4;1999;1.25062531265633;-0.6062176;1.15;-0.6204277;1.223423;0.4499513;2.036231;0.3960489;2.045923;
637951458940410616;1332.736;2;7;2.5;0.3;1.4;1500;1.66666666666667;0.6893654;1.621554;0.6193707;1.637609;-0.6062176;1.15;-0.6204277;1.223423;
637951458959404885;1334.635;2;7;2.5;0.3;1.4;1899;1.31648235913639;-0.6893655;1.621553;-0.5946417;1.647274;0.6893654;1.621554;0.6193707;1.637609;
637951458970397357;1335.734;2;7;2.5;0.3;1.4;1099;2.27479526842584;0.6062179;1.15;0.5135698;1.207917;-0.6893655;1.621553;-0.5946417;1.647274;
637951458978389147;1336.534;2;7;2.5;0.3;1.4;800;3.125;-0.4499517;2.036231;-0.3650031;2.012017;0.6062179;1.15;0.5135698;1.207917;
637951458989381616;1337.633;2;7;2.5;0.3;1.4;1099;2.27479526842584;0.2394144;0.8422153;0.2152249;0.9875788;-0.4499517;2.036231;-0.3650031;2.012017;
