637951336203318223;264.7469;30;0;4;0.1;1.4;1205;3.3195020746888;-0.2394138;0.8422151;-0.2373701;0.8511142;0;2.2;-0.01477204;2.160776;
637951336224242923;266.8407;30;0;4;0.1;1.4;2094;1.91021967526266;0.4499513;2.036231;0.4257974;2.006209;-0.2394138;0.8422151;-0.2373701;0.8511142;
637951336236245619;268.0401;30;0;4;0.1;1.4;1199;3.33611342785655;-0.6062176;1.15;-0.5578771;1.158783;0.4499513;2.036231;0.4257974;2.006209;
637951336247238091;269.1398;30;0;4;0.1;1.4;1100;3.63636363636364;0.6893654;1.621554;0.662472;1.618927;-0.6062176;1.15;-0.5578771;1.158783;
637951336262241458;270.6395;30;0;4;0.1;1.4;1500;2.66666666666667;-0.6893655;1.621553;-0.6856885;1.604375;0.6893654;1.621554;0.662472;1.618927;
637951336279224925;272.3384;30;0;4;0.1;1.4;1699;2.35432607416127;0.6062179;1.15;0.6005375;1.147958;-0.6893655;1.621553;-0.6856885;1.604375;
637951336288266057;273.2424;30;0;4;0.1;1.4;904;4.42477876106195;-0.4499517;2.036231;-0.4518864;2.053658;0.6062179;1.15;0.6005375;1.147958;
637951336308208282;275.2371;30;0;4;0.1;1.4;1995;2.00501253132832;0.2394144;0.8422153;0.2018765;0.847078;-0.4499517;2.036231;-0.4518864;2.053658;
637951336324372190;276.8526;30;0;2.5;0.3;1.4;804;3.10945273631841;-0.2394138;0.8422151;-0.2316629;0.8957549;0;2.2;-0.1284611;2.213298;
637951336332368644;277.6523;30;0;2.5;0.3;1.4;800;3.125;0.4499513;2.036231;0.4529042;2.022354;-0.2394138;0.8422151;-0.2316629;0.8957549;
637951336342301577;278.6464;30;0;2.5;0.3;1.4;994;2.51509054325956;-0.6062176;1.15;-0.5227504;1.175163;0.4499513;2.036231;0.4529042;2.022354;
637951336348234428;279.2396;30;0;2.5;0.3;1.4;593;4.21585160202361;0.6893654;1.621554;0.7195294;1.590247;-0.6062176;1.15;-0.5227504;1.175163;
637951336369284419;281.3448;30;0;2.5;0.3;1.4;2105;1.18764845605701;-0.6893655;1.621553;-0.6245142;1.55718;0.6893654;1.621554;0.7195294;1.590247;
637951336377284319;282.1444;30;0;2.5;0.3;1.4;800;3.125;0.6062179;1.15;0.5062923;1.11607;-0.6893655;1.621553;-0.6245142;1.55718;
637951336384284253;282.8445;30;0;2.5;0.3;1.4;700;3.57142857142857;-0.4499517;2.036231;-0.4085478;1.94003;0.6062179;1.15;0.5062923;1.11607;
637951336392284696;283.6441;30;0;2.5;0.3;1.4;800;3.125;0.2394144;0.8422153;0.1820417;0.9431199;-0.4499517;2.036231;-0.4085478;1.94003;
637951336406274003;285.0432;30;0;2;0.6;1.8;694;2.88184438040346;-0.3078177;0.6542765;-0.2598297;0.9501948;0;2.4;-0.01771057;2.21847;
637951336414273912;285.8429;30;0;2;0.6;1.8;800;2.5;0.5785087;2.18944;0.5363815;2.250863;-0.3078177;0.6542765;-0.2598297;0.9501948;
637951336420263920;286.4427;30;0;2;0.6;1.8;600;3.33333333333333;-0.7794226;1.05;-0.7116023;1.049176;0.5785087;2.18944;0.5363815;2.250863;
637951336426314043;287.0471;30;0;2;0.6;1.8;604;3.3112582781457;0.8863269;1.656283;0.7438479;1.629102;-0.7794226;1.05;-0.7116023;1.049176;
637951336431263831;287.5422;30;0;2;0.6;1.8;495;4.04040404040404;-0.8863271;1.656283;-0.8051346;1.561647;0.8863269;1.656283;0.7438479;1.629102;
637951336439263743;288.342;30;0;2;0.6;1.8;800;2.5;0.779423;1.05;0.6039744;1.015646;-0.8863271;1.656283;-0.8051346;1.561647;
637951336460353415;290.4519;30;0;2;0.6;1.8;2110;0.947867298578199;-0.5785094;2.18944;-0.4792215;2.054193;0.779423;1.05;0.6039744;1.015646;
637951336470353309;291.4515;30;0;2;0.6;1.8;1000;2;0.3078185;0.6542768;0.2394627;0.8494734;-0.5785094;2.18944;-0.4792215;2.054193;
637951336483443191;292.7601;30;0;1.5;1.1;2;715;2.0979020979021;-0.3420197;0.5603072;-0.1585977;0.8908399;0;2.5;-0.001073916;2.336448;
637951336488343096;293.2505;30;0;1.5;1.1;2;490;3.06122448979592;0.6427875;2.266045;0.4304267;2.086048;-0.3420197;0.5603072;-0.1585977;0.8908399;
637951336494343050;293.8502;30;0;1.5;1.1;2;600;2.5;-0.8660251;0.9999995;-0.6627449;1.138246;0.6427875;2.266045;0.4304267;2.086048;
637951336500343215;294.4501;30;0;1.5;1.1;2;600;2.5;0.9848077;1.673648;0.6573745;1.611567;-0.8660251;0.9999995;-0.6627449;1.138246;
637951336506332012;295.0496;30;0;1.5;1.1;2;599;2.50417362270451;-0.9848078;1.673648;-0.7129745;1.55221;0.9848077;1.673648;0.6573745;1.611567;
637951336521332973;296.5496;30;0;1.5;1.1;2;1500;1;0.8660256;1;0.514347;1.164959;-0.9848078;1.673648;-0.7129745;1.55221;
637951336528324539;297.2488;30;0;1.5;1.1;2;699;2.14592274678112;-0.6427882;2.266044;-0.3679668;2.063903;0.8660256;1;0.514347;1.164959;
637951336537322767;298.1484;30;0;1.5;1.1;2;900;1.66666666666667;0.3420205;0.5603075;0.3011817;0.9647614;-0.6427882;2.266044;-0.3679668;2.063903;
637951336577428902;302.1585;30;0;3.5;0.2;2;1212;2.88778877887789;-0.3420197;0.5603072;-0.3015642;0.5196736;0;2.5;-0.00721778;2.445417;
637951336586340901;303.0501;30;0;3.5;0.2;2;892;3.9237668161435;0.6427875;2.266045;0.5725039;2.230276;-0.3420197;0.5603072;-0.3015642;0.5196736;
637951336595462948;303.962;30;0;3.5;0.2;2;912;3.83771929824561;-0.8660251;0.9999995;-0.802426;1.008471;0.6427875;2.266045;0.5725039;2.230276;
637951336603464770;304.7618;30;0;3.5;0.2;2;800;4.375;0.9848077;1.673648;0.8912009;1.658916;-0.8660251;0.9999995;-0.802426;1.008471;
637951336612406773;305.6565;30;0;3.5;0.2;2;895;3.91061452513966;-0.9848078;1.673648;-0.9331886;1.640628;0.9848077;1.673648;0.8912009;1.658916;
637951336620398568;306.4557;30;0;3.5;0.2;2;799;4.38047559449312;0.8660256;1;0.8460103;1.096323;-0.9848078;1.673648;-0.9331886;1.640628;
637951336631391039;307.555;30;0;3.5;0.2;2;1099;3.18471337579618;-0.6427882;2.266044;-0.5878546;2.239652;0.8660256;1;0.8460103;1.096323;
637951336643393737;308.7551;30;0;3.5;0.2;2;1200;2.91666666666667;0.3420205;0.5603075;0.3179627;0.5943396;-0.6427882;2.266044;-0.5878546;2.239652;
637951336668379346;311.2536;30;0;4.5;0.1;2.2;1300;3.46153846153846;-0.3762217;0.4663379;-0.3424317;0.5031949;0;2.6;0.002221471;2.590386;
637951336684362941;312.8527;30;0;4.5;0.1;2.2;1599;2.81425891181989;0.7070663;2.342649;0.7326077;2.34387;-0.3762217;0.4663379;-0.3424317;0.5031949;
637951336704357430;314.8516;30;0;4.5;0.1;2.2;1999;2.25112556278139;-0.9526277;0.9499994;-0.9336458;0.9914984;0.7070663;2.342649;0.7326077;2.34387;
637951336728452842;317.2617;30;0;4.5;0.1;2.2;2410;1.86721991701245;1.083289;1.691013;1.051621;1.675576;-0.9526277;0.9499994;-0.9336458;0.9914984;
637951336756499140;320.0657;30;0;4.5;0.1;2.2;2804;1.60485021398003;-1.083289;1.691012;-1.070112;1.69131;1.083289;1.691013;1.051621;1.675576;
637951336784375404;322.8535;30;0;4.5;0.1;2.2;2788;1.61406025824964;0.9526281;0.9500003;0.9317796;0.9784522;-1.083289;1.691012;-1.070112;1.69131;
637951336796428105;324.0588;30;0;4.5;0.1;2.2;1205;3.7344398340249;-0.7070671;2.342648;-0.6821561;2.322755;0.9526281;0.9500003;0.9317796;0.9784522;
637951336808420803;325.2583;30;0;4.5;0.1;2.2;1199;3.75312760633862;0.3762226;0.4663382;0.3518094;0.4810809;-0.7070671;2.342648;-0.6821561;2.322755;
637951336823394163;326.755;30;0;3;0.2;1.4;697;4.30416068866571;-0.2394138;0.8422151;-0.3114544;0.8310176;0;2.2;-0.00586199;2.161114;
637951336841398206;328.5562;30;0;3;0.2;1.4;1801;1.66574125485841;0.4499513;2.036231;0.4134429;2.05359;-0.2394138;0.8422151;-0.3114544;0.8310176;
637951336853400903;329.7559;30;0;3;0.2;1.4;1200;2.5;-0.6062176;1.15;-0.5422055;1.188683;0.4499513;2.036231;0.4134429;2.05359;
637951336866393821;331.0556;30;0;3;0.2;1.4;1300;2.30769230769231;0.6893654;1.621554;0.6740333;1.637366;-0.6062176;1.15;-0.5422055;1.188683;
637951336875385839;331.9548;30;0;3;0.2;1.4;899;3.33704115684093;-0.6893655;1.621553;-0.7544199;1.567337;0.6893654;1.621554;0.6740333;1.637366;
637951336884387860;332.8544;30;0;3;0.2;1.4;900;3.33333333333333;0.6062179;1.15;0.6718879;1.17823;-0.6893655;1.621553;-0.7544199;1.567337;
637951336893494955;333.7653;30;0;3;0.2;1.4;911;3.29308452250274;-0.4499517;2.036231;-0.4274628;1.988879;0.6062179;1.15;0.6718879;1.17823;
637951336902485154;334.6647;30;0;3;0.2;1.4;899;3.33704115684093;0.2394144;0.8422153;0.2404168;0.9421794;-0.4499517;2.036231;-0.4274628;1.988879;
637951337868800133;431.2976;30;1;1.5;1.1;2;700;2.14285714285714;-0.3420197;0.5603072;-0.1727694;0.9152676;0;2.5;-0.02646128;2.149313;
637951337874801485;431.8974;30;1;1.5;1.1;2;600;2.5;0.6427875;2.266045;0.375608;2.085862;-0.3420197;0.5603072;-0.1727694;0.9152676;
637951337880792825;432.4969;30;1;1.5;1.1;2;599;2.50417362270451;-0.8660251;0.9999995;-0.6414591;1.223664;0.6427875;2.266045;0.375608;2.085862;
637951337886794170;433.0967;30;1;1.5;1.1;2;600;2.5;0.9848077;1.673648;0.6041062;1.672898;-0.8660251;0.9999995;-0.6414591;1.223664;
637951337890795072;433.4966;30;1;1.5;1.1;2;400;3.75;-0.9848078;1.673648;-0.5724443;1.479821;0.9848077;1.673648;0.6041062;1.672898;
637951337897786642;434.1961;30;1;1.5;1.1;2;700;2.14285714285714;0.8660256;1;0.6218185;1.175883;-0.9848078;1.673648;-0.5724443;1.479821;
637951337902777761;434.6958;30;1;1.5;1.1;2;500;3;-0.6427882;2.266044;-0.5614949;1.778234;0.8660256;1;0.6218185;1.175883;
637951337909779329;435.3952;30;1;1.5;1.1;2;699;2.14592274678112;0.3420205;0.5603075;0.318116;0.9448453;-0.6427882;2.266044;-0.5614949;1.778234;
637951337945767418;438.9941;30;1;4.5;0.1;2.2;1699;2.64861683343143;-0.3762217;0.4663379;-0.3828537;0.4260875;0;2.6;-0.02696553;2.558624;
637951337964923818;440.9095;30;1;4.5;0.1;2.2;1915;2.34986945169713;0.7070663;2.342649;0.705565;2.300841;-0.3762217;0.4663379;-0.3828537;0.4260875;
637951337976861449;442.1034;30;1;4.5;0.1;2.2;1194;3.76884422110553;-0.9526277;0.9499994;-0.9720122;0.9316741;0.7070663;2.342649;0.705565;2.300841;
637951337988854141;443.3029;30;1;4.5;0.1;2.2;1200;3.75;1.083289;1.691013;1.066054;1.675968;-0.9526277;0.9499994;-0.9720122;0.9316741;
637951338014848810;445.902;30;1;4.5;0.1;2.2;2599;1.73143516737207;-1.083289;1.691012;-1.049743;1.687707;1.083289;1.691013;1.066054;1.675968;
637951338034836797;447.901;30;1;4.5;0.1;2.2;1999;2.25112556278139;0.9526281;0.9500003;0.9301842;0.9583671;-1.083289;1.691012;-1.049743;1.687707;
637951338046821259;449.1002;30;1;4.5;0.1;2.2;1199;3.75312760633862;-0.7070671;2.342648;-0.6799836;2.322595;0.9526281;0.9500003;0.9301842;0.9583671;
637951338067815977;451.1993;30;1;4.5;0.1;2.2;2099;2.14387803716055;0.3762226;0.4663382;0.3604039;0.4889805;-0.7070671;2.342648;-0.6799836;2.322595;
637951338082809345;452.6989;30;1;2;0.6;1.8;600;3.33333333333333;-0.3078177;0.6542765;-0.2613508;0.9323599;0;2.4;-0.0494559;2.337374;
637951338104794281;454.8972;30;1;2;0.6;1.8;2198;0.909918107370337;0.5785087;2.18944;0.4410587;2.088598;-0.3078177;0.6542765;-0.2613508;0.9323599;
637951338120907902;456.5082;30;1;2;0.6;1.8;1611;1.24146492861577;-0.7794226;1.05;-0.6626391;1.201953;0.5785087;2.18944;0.4410587;2.088598;
637951338134901044;457.9074;30;1;2;0.6;1.8;1399;1.42959256611866;0.8863269;1.656283;0.615832;1.640445;-0.7794226;1.05;-0.6626391;1.201953;
637951338143893064;458.8069;30;1;2;0.6;1.8;899;2.22469410456062;-0.8863271;1.656283;-0.5990326;1.644643;0.8863269;1.656283;0.615832;1.640445;
637951338151884857;459.6065;30;1;2;0.6;1.8;800;2.5;0.779423;1.05;0.7839603;1.194885;-0.8863271;1.656283;-0.5990326;1.644643;
637951338160886880;460.5059;30;1;2;0.6;1.8;899;2.22469410456062;-0.5785094;2.18944;-0.4134989;2.064903;0.779423;1.05;0.7839603;1.194885;
637951338167878450;461.2059;30;1;2;0.6;1.8;700;2.85714285714286;0.3078185;0.6542768;0.3136258;0.8347528;-0.5785094;2.18944;-0.4134989;2.064903;
637951338193874290;463.8046;30;1;3;0.2;1.4;1300;2.30769230769231;-0.2394138;0.8422151;-0.2520067;0.9257165;0;2.2;-0.01508149;2.128625;
637951338223020835;466.7194;30;1;3;0.2;1.4;2915;1.02915951972556;0.4499513;2.036231;0.4361447;2.02374;-0.2394138;0.8422151;-0.2520067;0.9257165;
637951338234013307;467.8192;30;1;3;0.2;1.4;1100;2.72727272727273;-0.6062176;1.15;-0.522466;1.171642;0.4499513;2.036231;0.4361447;2.02374;
637951338242955312;468.7133;30;1;3;0.2;1.4;894;3.35570469798658;0.6893654;1.621554;0.687627;1.603716;-0.6062176;1.15;-0.522466;1.171642;
637951338250957109;469.513;30;1;3;0.2;1.4;800;3.75;-0.6893655;1.621553;-0.5969822;1.584653;0.6893654;1.621554;0.687627;1.603716;
637951338266950699;471.1126;30;1;3;0.2;1.4;1600;1.875;0.6062179;1.15;0.5916934;1.152046;-0.6893655;1.621553;-0.5969822;1.584653;
637951338281994078;472.6168;30;1;3;0.2;1.4;1504;1.99468085106383;-0.4499517;2.036231;-0.4153616;1.950856;0.6062179;1.15;0.5916934;1.152046;
637951338293936763;473.8109;30;1;3;0.2;1.4;1194;2.51256281407035;0.2394144;0.8422153;0.180753;0.8818313;-0.4499517;2.036231;-0.4153616;1.950856;
637951338321979148;476.615;30;1;4;0.1;1.4;1205;3.3195020746888;-0.2394138;0.8422151;-0.2009377;0.8539479;0;2.2;-0.01373559;2.153936;
637951338333909859;477.8089;30;1;4;0.1;1.4;1194;3.3500837520938;0.4499513;2.036231;0.4340841;2.064347;-0.2394138;0.8422151;-0.2009377;0.8539479;
637951338352904128;479.7081;30;1;4;0.1;1.4;1899;2.10637177461822;-0.6062176;1.15;-0.5918564;1.174512;0.4499513;2.036231;0.4340841;2.064347;
637951338363015311;480.7193;30;1;4;0.1;1.4;1011;3.95647873392681;0.6893654;1.621554;0.6600983;1.621971;-0.6062176;1.15;-0.5918564;1.174512;
637951338376012097;482.0184;30;1;4;0.1;1.4;1299;3.07929176289453;-0.6893655;1.621553;-0.7069327;1.596285;0.6893654;1.621554;0.6600983;1.621971;
637951338390001796;483.4175;30;1;4;0.1;1.4;1399;2.85918513223731;0.6062179;1.15;0.5888141;1.172637;-0.6893655;1.621553;-0.7069327;1.596285;
637951338406989174;485.1168;30;1;4;0.1;1.4;1699;2.35432607416127;-0.4499517;2.036231;-0.4520417;2.004228;0.6062179;1.15;0.5888141;1.172637;
637951338431984791;487.6157;30;1;4;0.1;1.4;2499;1.60064025610244;0.2394144;0.8422153;0.2199211;0.8738712;-0.4499517;2.036231;-0.4520417;2.004228;
637951338451969280;489.6149;30;1;2.5;0.3;1.4;1199;2.08507089241034;-0.2394138;0.8422151;-0.2303152;0.8094409;0;2.2;-0.05344815;2.127037;
637951338460011086;490.4191;30;1;2.5;0.3;1.4;804;3.10945273631841;0.4499513;2.036231;0.4010038;2.076385;-0.2394138;0.8422151;-0.2303152;0.8094409;
637951338467962872;491.2142;30;1;2.5;0.3;1.4;795;3.14465408805031;-0.6062176;1.15;-0.5735601;1.109842;0.4499513;2.036231;0.4010038;2.076385;
637951338475954666;492.0135;30;1;2.5;0.3;1.4;799;3.12891113892365;0.6893654;1.621554;0.6643871;1.690953;-0.6062176;1.15;-0.5735601;1.109842;
637951338482006028;492.6182;30;1;2.5;0.3;1.4;605;4.13223140495868;-0.6893655;1.621553;-0.6821127;1.529643;0.6893654;1.621554;0.6643871;1.690953;
637951338488957586;493.313;30;1;2.5;0.3;1.4;695;3.59712230215827;0.6062179;1.15;0.661275;1.195082;-0.6893655;1.621553;-0.6821127;1.529643;
637951338502060531;494.6234;30;1;2.5;0.3;1.4;1310;1.90839694656489;-0.4499517;2.036231;-0.3941854;2.018699;0.6062179;1.15;0.661275;1.195082;
637951338509992313;495.4173;30;1;2.5;0.3;1.4;794;3.14861460957179;0.2394144;0.8422153;0.217013;0.8230149;-0.4499517;2.036231;-0.3941854;2.018699;
637951338533047489;497.7223;30;1;3.5;0.2;2;1100;3.18181818181818;-0.3420197;0.5603072;-0.303655;0.6387578;0;2.5;-0.0477598;2.524529;
637951338541049287;498.5225;30;1;3.5;0.2;2;800;4.375;0.6427875;2.266045;0.6086857;2.191012;-0.3420197;0.5603072;-0.303655;0.6387578;
637951338549041084;499.3217;30;1;3.5;0.2;2;799;4.38047559449312;-0.8660251;0.9999995;-0.8077704;0.9827495;0.6427875;2.266045;0.6086857;2.191012;
637951338556032653;500.021;30;1;3.5;0.2;2;699;5.0071530758226;0.9848077;1.673648;1.008803;1.658137;-0.8660251;0.9999995;-0.8077704;0.9827495;
637951338572136274;501.6315;30;1;3.5;0.2;2;1611;2.17256362507759;-0.9848078;1.673648;-0.9075783;1.706637;0.9848077;1.673648;1.008803;1.658137;
637951338581138293;502.5313;30;1;3.5;0.2;2;900;3.88888888888889;0.8660256;1;0.8336437;1.075606;-0.9848078;1.673648;-0.9075783;1.706637;
637951338590180326;503.4355;30;1;3.5;0.2;2;904;3.8716814159292;-0.6427882;2.266044;-0.7026064;2.228037;0.8660256;1;0.8336437;1.075606;
637951338606173914;505.0352;30;1;3.5;0.2;2;1600;2.1875;0.3420205;0.5603075;0.3083504;0.6521871;-0.6427882;2.266044;-0.7026064;2.228037;
637951339102339816;554.6511;30;2;4.5;0.1;2.2;1299;3.46420323325635;-0.3762217;0.4663379;-0.3724523;0.4268721;0;2.6;-0.01265635;2.583976;
637951339120323857;556.4503;30;2;4.5;0.1;2.2;1799;2.50138966092273;0.7070663;2.342649;0.6802576;2.306648;-0.3762217;0.4663379;-0.3724523;0.4268721;
637951339149316585;559.3491;30;2;4.5;0.1;2.2;2899;1.55225939979303;-0.9526277;0.9499994;-0.9426222;0.9718902;0.7070663;2.342649;0.6802576;2.306648;
637951339161306712;560.5483;30;2;4.5;0.1;2.2;1199;3.75312760633862;1.083289;1.691013;1.048902;1.680199;-0.9526277;0.9499994;-0.9426222;0.9718902;
637951339183297613;562.7476;30;2;4.5;0.1;2.2;2199;2.04638472032742;-1.083289;1.691012;-1.08988;1.649942;1.083289;1.691013;1.048902;1.680199;
637951339202396650;564.6575;30;2;4.5;0.1;2.2;1910;2.35602094240838;0.9526281;0.9500003;0.9146102;0.9537238;-1.083289;1.691012;-1.08988;1.649942;
637951339215393022;565.9568;30;2;4.5;0.1;2.2;1299;3.46420323325635;-0.7070671;2.342648;-0.7360016;2.322691;0.9526281;0.9500003;0.9146102;0.9537238;
637951339231393079;567.5563;30;2;4.5;0.1;2.2;1599;2.81425891181989;0.3762226;0.4663382;0.3896361;0.4709243;-0.7070671;2.342648;-0.7360016;2.322691;
637951339259382546;570.3556;30;2;4;0.1;1.4;1200;3.33333333333333;-0.2394138;0.8422151;-0.1971458;0.8381511;0;2.2;0.003436774;2.182059;
637951339287472746;573.1649;30;2;4;0.1;1.4;2809;1.42399430402278;0.4499513;2.036231;0.4639508;2.04311;-0.2394138;0.8422151;-0.1971458;0.8381511;
637951339319459931;576.3636;30;2;4;0.1;1.4;3199;1.25039074710847;-0.6062176;1.15;-0.608287;1.137804;0.4499513;2.036231;0.4639508;2.04311;
637951339344445544;578.8621;30;2;4;0.1;1.4;2499;1.60064025610244;0.6893654;1.621554;0.6622739;1.59524;-0.6062176;1.15;-0.608287;1.137804;
637951339356438237;580.0616;30;2;4;0.1;1.4;1200;3.33333333333333;-0.6893655;1.621553;-0.6941687;1.625369;0.6893654;1.621554;0.6622739;1.59524;
637951339365440257;580.9614;30;2;4;0.1;1.4;900;4.44444444444444;0.6062179;1.15;0.6181573;1.148756;-0.6893655;1.621553;-0.6941687;1.625369;
637951339381433849;582.5609;30;2;4;0.1;1.4;1599;2.50156347717323;-0.4499517;2.036231;-0.4830772;2.023165;0.6062179;1.15;0.6181573;1.148756;
637951339410420362;585.4592;30;2;4;0.1;1.4;2898;1.38026224982747;0.2394144;0.8422153;0.2235593;0.8494866;-0.4499517;2.036231;-0.4830772;2.023165;
637951339433405522;587.7582;30;2;2.5;0.3;1.4;700;3.57142857142857;-0.2394138;0.8422151;-0.1711524;0.9746502;0;2.2;-0.01539187;2.056709;
637951339440397093;588.4578;30;2;2.5;0.3;1.4;700;3.57142857142857;0.4499513;2.036231;0.4642509;1.983919;-0.2394138;0.8422151;-0.1711524;0.9746502;
637951339459501386;590.3681;30;2;2.5;0.3;1.4;1910;1.30890052356021;-0.6062176;1.15;-0.5357683;1.222811;0.4499513;2.036231;0.4642509;1.983919;
637951339466502956;591.0676;30;2;2.5;0.3;1.4;700;3.57142857142857;0.6893654;1.621554;0.6712463;1.62908;-0.6062176;1.15;-0.5357683;1.222811;
637951339491488570;593.5667;30;2;2.5;0.3;1.4;2499;1.00040016006403;-0.6893655;1.621553;-0.6706467;1.625425;0.6893654;1.621554;0.6712463;1.62908;
637951339501480811;594.5659;30;2;2.5;0.3;1.4;999;2.5025025025025;0.6062179;1.15;0.5024016;1.225484;-0.6893655;1.621553;-0.6706467;1.625425;
637951339508472381;595.2655;30;2;2.5;0.3;1.4;700;3.57142857142857;-0.4499517;2.036231;-0.3782787;1.954562;0.6062179;1.15;0.5024016;1.225484;
637951339525476202;596.9649;30;2;2.5;0.3;1.4;1699;1.47145379635079;0.2394144;0.8422153;0.1768366;0.9368932;-0.4499517;2.036231;-0.3782787;1.954562;
637951339558454746;600.2635;30;2;2;0.6;1.8;1300;1.53846153846154;-0.3078177;0.6542765;-0.205193;0.8965769;0;2.4;-0.003140343;2.288173;
637951339566456548;601.0631;30;2;2;0.6;1.8;800;2.5;0.5785087;2.18944;0.4176967;2.209265;-0.3078177;0.6542765;-0.205193;0.8965769;
637951339579449466;602.3627;30;2;2;0.6;1.8;1300;1.53846153846154;-0.7794226;1.05;-0.613576;1.190579;0.5785087;2.18944;0.4176967;2.209265;
637951339587441256;603.1619;30;2;2;0.6;1.8;799;2.50312891113892;0.8863269;1.656283;0.687178;1.62836;-0.7794226;1.05;-0.613576;1.190579;
637951339606434188;605.0613;30;2;2;0.6;1.8;1899;1.05318588730911;-0.8863271;1.656283;-0.6596143;1.562042;0.8863269;1.656283;0.687178;1.62836;
637951339614546013;605.8719;30;2;2;0.6;1.8;811;2.46609124537608;0.779423;1.05;0.5877494;1.20859;-0.8863271;1.656283;-0.6596143;1.562042;
637951339623538033;606.7714;30;2;2;0.6;1.8;899;2.22469410456062;-0.5785094;2.18944;-0.5928906;2.03339;0.779423;1.05;0.5877494;1.20859;
637951339631529828;607.5709;30;2;2;0.6;1.8;799;2.50312891113892;0.3078185;0.6542768;0.3303128;0.6808543;-0.5785094;2.18944;-0.5928906;2.03339;
637951339650524098;609.4702;30;2;3.5;0.2;2;1000;3.5;-0.3420197;0.5603072;-0.3215572;0.5880719;0;2.5;-0.08113759;2.547016;
637951339684511727;612.8687;30;2;3.5;0.2;2;3398;1.03001765744556;0.6427875;2.266045;0.5876499;2.201608;-0.3420197;0.5603072;-0.3215572;0.5880719;
637951339698504871;614.2678;30;2;3.5;0.2;2;1399;2.50178699070765;-0.8660251;0.9999995;-0.8488563;1.029337;0.6427875;2.266045;0.5876499;2.201608;
637951339725490934;616.9668;30;2;3.5;0.2;2;2699;1.29677658391997;0.9848077;1.673648;0.9632186;1.700654;-0.8660251;0.9999995;-0.8488563;1.029337;
637951339747475867;619.1654;30;2;3.5;0.2;2;2199;1.59163256025466;-0.9848078;1.673648;-0.9183144;1.616394;0.9848077;1.673648;0.9632186;1.700654;
637951339757588139;620.1763;30;2;3.5;0.2;2;1011;3.46191889218595;0.8660256;1;0.9272469;0.9929568;-0.9848078;1.673648;-0.9183144;1.616394;
637951339768580609;621.2759;30;2;3.5;0.2;2;1100;3.18181818181818;-0.6427882;2.266044;-0.5738451;2.233073;0.8660256;1;0.9272469;0.9929568;
637951339778582855;622.2756;30;2;3.5;0.2;2;1000;3.5;0.3420205;0.5603075;0.3182926;0.6263732;-0.6427882;2.266044;-0.5738451;2.233073;
637951339793576223;623.775;30;2;1.5;1.1;2;700;2.14285714285714;-0.3420197;0.5603072;-0.1746238;0.9331348;0;2.5;-0.05539522;2.297533;
637951339817561611;626.1736;30;2;1.5;1.1;2;2399;0.625260525218841;0.6427875;2.266045;0.4706948;2.103483;-0.3420197;0.5603072;-0.1746238;0.9331348;
637951339834555423;627.8727;30;2;1.5;1.1;2;1699;0.882872277810477;-0.8660251;0.9999995;-0.5017135;1.298527;0.6427875;2.266045;0.4706948;2.103483;
637951339845547895;628.9724;30;2;1.5;1.1;2;1100;1.36363636363636;0.9848077;1.673648;0.6820318;1.698723;-0.8660251;0.9999995;-0.5017135;1.298527;
637951339862541712;630.6719;30;2;1.5;1.1;2;1700;0.882352941176471;-0.9848078;1.673648;-0.5625362;1.611761;0.9848077;1.673648;0.6820318;1.698723;
637951339878645328;632.2817;30;2;1.5;1.1;2;1610;0.93167701863354;0.8660256;1;0.5133281;1.231012;-0.9848078;1.673648;-0.5625362;1.611761;
637951339887640035;633.1812;30;2;1.5;1.1;2;899;1.66852057842047;-0.6427882;2.266044;-0.4759904;2.009365;0.8660256;1;0.5133281;1.231012;
637951339896632054;634.0807;30;2;1.5;1.1;2;900;1.66666666666667;0.3420205;0.5603075;0.2421627;1.007375;-0.6427882;2.266044;-0.4759904;2.009365;
637951339914626097;635.8799;30;2;3;0.2;1.4;800;3.75;-0.2394138;0.8422151;-0.2297791;0.9403154;0;2.2;0.006131871;2.170734;
637951339931619443;637.5795;30;2;3;0.2;1.4;1700;1.76470588235294;0.4499513;2.036231;0.4510862;2.009964;-0.2394138;0.8422151;-0.2297791;0.9403154;
637951339941610398;638.5784;30;2;3;0.2;1.4;999;3.003003003003;-0.6062176;1.15;-0.6207434;1.176989;0.4499513;2.036231;0.4510862;2.009964;
637951339972707381;641.6885;30;2;3;0.2;1.4;3110;0.964630225080386;0.6893654;1.621554;0.6443862;1.635253;-0.6062176;1.15;-0.6207434;1.176989;
637951339993702099;643.7879;30;2;3;0.2;1.4;2099;1.4292520247737;-0.6893655;1.621553;-0.6277761;1.621252;0.6893654;1.621554;0.6443862;1.635253;
637951340003694342;644.7872;30;2;3;0.2;1.4;999;3.003003003003;0.6062179;1.15;0.5670037;1.180355;-0.6893655;1.621553;-0.6277761;1.621252;
637951340012696364;645.6869;30;2;3;0.2;1.4;900;3.33333333333333;-0.4499517;2.036231;-0.5005991;2.045019;0.6062179;1.15;0.5670037;1.180355;
637951340026679504;647.0861;30;2;3;0.2;1.4;1399;2.14438884917798;0.2394144;0.8422153;0.2474011;0.8571823;-0.4499517;2.036231;-0.5005991;2.045019;
637951340532006487;697.6177;30;3;3;0.2;1.4;999;3.003003003003;-0.2394138;0.8422151;-0.1993142;0.9308881;0;2.2;-0.01070162;2.126985;
637951340544999403;698.9175;30;3;3;0.2;1.4;1300;2.30769230769231;0.4499513;2.036231;0.4041455;2.05937;-0.2394138;0.8422151;-0.1993142;0.9308881;
637951340559000552;700.3174;30;3;3;0.2;1.4;1400;2.14285714285714;-0.6062176;1.15;-0.549893;1.098212;0.4499513;2.036231;0.4041455;2.05937;
637951340586981827;703.116;30;3;3;0.2;1.4;2799;1.07181136120043;0.6893654;1.621554;0.617661;1.627192;-0.6062176;1.15;-0.549893;1.098212;
637951340596974072;704.1149;30;3;3;0.2;1.4;999;3.003003003003;-0.6893655;1.621553;-0.658454;1.617491;0.6893654;1.621554;0.617661;1.627192;
637951340605966091;705.0147;30;3;3;0.2;1.4;900;3.33333333333333;0.6062179;1.15;0.6190293;1.187389;-0.6893655;1.621553;-0.658454;1.617491;
637951340621959678;706.614;30;3;3;0.2;1.4;1599;1.87617260787993;-0.4499517;2.036231;-0.4110358;2.046653;0.6062179;1.15;0.6190293;1.187389;
637951340638073303;708.2243;30;3;3;0.2;1.4;1610;1.86335403726708;0.2394144;0.8422153;0.2506607;0.9148484;-0.4499517;2.036231;-0.4110358;2.046653;
637951340663048911;710.723;30;3;2;0.6;1.8;1599;1.25078173858662;-0.3078177;0.6542765;-0.2130997;0.836591;0;2.4;0.0164532;2.336843;
637951340674051386;711.8224;30;3;2;0.6;1.8;1099;1.81983621474067;0.5785087;2.18944;0.4376185;2.088695;-0.3078177;0.6542765;-0.2130997;0.836591;
637951340681052956;712.5225;30;3;2;0.6;1.8;700;2.85714285714286;-0.7794226;1.05;-0.7596325;1.134617;0.5785087;2.18944;0.4376185;2.088695;
637951340694045871;713.8218;30;3;2;0.6;1.8;1299;1.53964588144727;0.8863269;1.656283;0.6588175;1.645631;-0.7794226;1.05;-0.7596325;1.134617;
637951340713030138;715.7208;30;3;2;0.6;1.8;1899;1.05318588730911;-0.8863271;1.656283;-0.7364898;1.632197;0.8863269;1.656283;0.6588175;1.645631;
637951340737025530;718.1199;30;3;2;0.6;1.8;2399;0.833680700291788;0.779423;1.05;0.5673878;1.159962;-0.8863271;1.656283;-0.7364898;1.632197;
637951340759010459;720.3187;30;3;2;0.6;1.8;2199;0.909504320145521;-0.5785094;2.18944;-0.4442267;2.129634;0.779423;1.05;0.5673878;1.159962;
637951340772003385;721.618;30;3;2;0.6;1.8;1299;1.53964588144727;0.3078185;0.6542768;0.213163;0.7609636;-0.5785094;2.18944;-0.4442267;2.129634;
637951340794108350;723.8286;30;3;2.5;0.3;1.4;1311;1.906941266209;-0.2394138;0.8422151;-0.2128049;0.943804;0;2.2;0.01750339;2.056412;
637951340804100592;724.8275;30;3;2.5;0.3;1.4;999;2.5025025025025;0.4499513;2.036231;0.4725018;2.102536;-0.2394138;0.8422151;-0.2128049;0.943804;
637951340819093959;726.3271;30;3;2.5;0.3;1.4;1500;1.66666666666667;-0.6062176;1.15;-0.6573486;1.187779;0.4499513;2.036231;0.4725018;2.102536;
637951340828085980;727.2266;30;3;2.5;0.3;1.4;899;2.78086763070078;0.6893654;1.621554;0.674593;1.730255;-0.6062176;1.15;-0.6573486;1.187779;
637951340837088001;728.1262;30;3;2.5;0.3;1.4;900;2.77777777777778;-0.6893655;1.621553;-0.7345187;1.532822;0.6893654;1.621554;0.674593;1.730255;
637951340846080020;729.0258;30;3;2.5;0.3;1.4;900;2.77777777777778;0.6062179;1.15;0.7381939;1.175058;-0.6893655;1.621553;-0.7345187;1.532822;
637951340853071589;729.7253;30;3;2.5;0.3;1.4;700;3.57142857142857;-0.4499517;2.036231;-0.4559474;1.954986;0.6062179;1.15;0.7381939;1.175058;
637951340863068913;730.725;30;3;2.5;0.3;1.4;1000;2.5;0.2394144;0.8422153;0.2123657;0.8510698;-0.4499517;2.036231;-0.4559474;1.954986;
637951340896058373;734.0233;30;3;4;0.1;1.4;1200;3.33333333333333;-0.2394138;0.8422151;-0.1947189;0.8542886;0;2.2;-0.006179973;2.153255;
637951340906052639;735.0228;30;3;4;0.1;1.4;1000;4;0.4499513;2.036231;0.4131583;2.03859;-0.2394138;0.8422151;-0.1947189;0.8542886;
637951340925156296;736.933;30;3;4;0.1;1.4;1910;2.09424083769634;-0.6062176;1.15;-0.622049;1.141868;0.4499513;2.036231;0.4131583;2.03859;
637951340936155541;738.0327;30;3;4;0.1;1.4;1100;3.63636363636364;0.6893654;1.621554;0.6448482;1.626456;-0.6062176;1.15;-0.622049;1.141868;
637951340959140702;740.3316;30;3;4;0.1;1.4;2299;1.73988690735102;-0.6893655;1.621553;-0.6678146;1.585304;0.6893654;1.621554;0.6448482;1.626456;
637951340985128167;742.9302;30;3;4;0.1;1.4;2599;1.5390534821085;0.6062179;1.15;0.5974801;1.190774;-0.6893655;1.621553;-0.6678146;1.585304;
637951341003122209;744.7296;30;3;4;0.1;1.4;1799;2.22345747637576;-0.4499517;2.036231;-0.4066601;2.013552;0.6062179;1.15;0.5974801;1.190774;
637951341035209418;747.9391;30;3;4;0.1;1.4;3210;1.24610591900312;0.2394144;0.8422153;0.2183836;0.8369197;-0.4499517;2.036231;-0.4066601;2.013552;
637951341081199744;752.5378;30;3;1.5;1.1;2;1400;1.07142857142857;-0.3420197;0.5603072;-0.1799019;1.009885;0;2.5;-0.067742;2.224526;
637951341099183783;754.3359;30;3;1.5;1.1;2;1798;0.834260289210234;0.6427875;2.266045;0.3714623;2.025958;-0.3420197;0.5603072;-0.1799019;1.009885;
637951341113176927;755.7354;30;3;1.5;1.1;2;1399;1.07219442458899;-0.8660251;0.9999995;-0.5270548;1.237311;0.6427875;2.266045;0.3714623;2.025958;
637951341121178719;756.5352;30;3;1.5;1.1;2;800;1.875;0.9848077;1.673648;0.7325638;1.696781;-0.8660251;0.9999995;-0.5270548;1.237311;
637951341129170519;757.3347;30;3;1.5;1.1;2;800;1.875;-0.9848078;1.673648;-0.5356047;1.680265;0.9848077;1.673648;0.7325638;1.696781;
637951341142163439;758.6342;30;3;1.5;1.1;2;1299;1.15473441108545;0.8660256;1;0.7348097;1.177472;-0.9848078;1.673648;-0.5356047;1.680265;
637951341162157927;760.6332;30;3;1.5;1.1;2;1999;0.750375187593797;-0.6427882;2.266044;-0.383058;2.033668;0.8660256;1;0.7348097;1.177472;
637951341171149947;761.5326;30;3;1.5;1.1;2;899;1.66852057842047;0.3420205;0.5603075;0.2146605;0.9899101;-0.6427882;2.266044;-0.383058;2.033668;
637951341214236657;765.8417;30;3;4.5;0.1;2.2;1999;2.25112556278139;-0.3762217;0.4663379;-0.3808988;0.4598637;0;2.6;-0.01277419;2.578927;
637951341230236225;767.441;30;3;4.5;0.1;2.2;1599;2.81425891181989;0.7070663;2.342649;0.6855807;2.356476;-0.3762217;0.4663379;-0.3808988;0.4598637;
637951341243226086;768.7405;30;3;4.5;0.1;2.2;1300;3.46153846153846;-0.9526277;0.9499994;-0.9059401;0.9584729;0.7070663;2.342649;0.6855807;2.356476;
637951341258219663;770.2398;30;3;4.5;0.1;2.2;1499;3.00200133422282;1.083289;1.691013;1.046498;1.672427;-0.9526277;0.9499994;-0.9059401;0.9584729;
637951341281209373;772.5389;30;3;4.5;0.1;2.2;2299;1.9573727707699;-1.083289;1.691012;-1.067013;1.711066;1.083289;1.691013;1.046498;1.672427;
637951341292209261;773.6383;30;3;4.5;0.1;2.2;1099;4.09463148316652;0.9526281;0.9500003;0.9344491;0.9300556;-1.083289;1.691012;-1.067013;1.711066;
637951341312309276;775.6483;30;3;4.5;0.1;2.2;2010;2.23880597014925;-0.7070671;2.342648;-0.7261351;2.313191;0.9526281;0.9500003;0.9344491;0.9300556;
637951341322299406;776.648;30;3;4.5;0.1;2.2;1000;4.5;0.3762226;0.4663382;0.3476939;0.4544239;-0.7070671;2.342648;-0.7261351;2.313191;
637951341339228720;778.3403;30;3;3.5;0.2;2;893;3.91937290033595;-0.3420197;0.5603072;-0.3444465;0.623336;0;2.5;-0.001242872;2.47857;
637951341359288495;780.3463;30;3;3.5;0.2;2;2006;1.74476570289133;0.6427875;2.266045;0.5681837;2.199467;-0.3420197;0.5603072;-0.3444465;0.623336;
637951341390274061;783.4448;30;3;3.5;0.2;2;3098;1.12976113621691;-0.8660251;0.9999995;-0.8143607;0.9867051;0.6427875;2.266045;0.5681837;2.199467;
637951341402266752;784.6442;30;3;3.5;0.2;2;1199;2.91909924937448;0.9848077;1.673648;0.9785513;1.690235;-0.8660251;0.9999995;-0.8143607;0.9867051;
637951341411268778;785.544;30;3;3.5;0.2;2;900;3.88888888888889;-0.9848078;1.673648;-0.9589736;1.659488;0.9848077;1.673648;0.9785513;1.690235;
637951341420310810;786.4486;30;3;3.5;0.2;2;905;3.86740331491713;0.8660256;1;0.8445484;0.9932901;-0.9848078;1.673648;-0.9589736;1.659488;
637951341447246857;789.1421;30;3;3.5;0.2;2;2694;1.29918337045286;-0.6427882;2.266044;-0.6375525;2.252154;0.8660256;1;0.8445484;0.9932901;
637951341463240450;790.7416;30;3;3.5;0.2;2;1599;2.18886804252658;0.3420205;0.5603075;0.3015857;0.5702337;-0.6427882;2.266044;-0.6375525;2.252154;
637951342513752670;895.7925;30;4;4;0.1;1.4;1199;3.33611342785655;-0.2394138;0.8422151;-0.2687533;0.8405533;0;2.2;-0.003393974;2.20972;
637951342525745365;896.992;30;4;4;0.1;1.4;1199;3.33611342785655;0.4499513;2.036231;0.4174372;2.033759;-0.2394138;0.8422151;-0.2687533;0.8405533;
637951342537738057;898.1915;30;4;4;0.1;1.4;1200;3.33333333333333;-0.6062176;1.15;-0.5888187;1.171695;0.4499513;2.036231;0.4174372;2.033759;
637951342561723446;900.5903;30;4;4;0.1;1.4;2399;1.66736140058358;0.6893654;1.621554;0.6702324;1.61718;-0.6062176;1.15;-0.5888187;1.171695;
637951342575716586;901.9896;30;4;4;0.1;1.4;1399;2.85918513223731;-0.6893655;1.621553;-0.7253311;1.629811;0.6893654;1.621554;0.6702324;1.61718;
637951342585718833;902.9894;30;4;4;0.1;1.4;1000;4;0.6062179;1.15;0.6069746;1.147009;-0.6893655;1.621553;-0.7253311;1.629811;
637951342595711076;903.9891;30;4;4;0.1;1.4;1000;4;-0.4499517;2.036231;-0.4516052;2.047351;0.6062179;1.15;0.6069746;1.147009;
637951342606703539;905.0883;30;4;4;0.1;1.4;1099;3.63967242948135;0.2394144;0.8422153;0.2273058;0.8875357;-0.4499517;2.036231;-0.4516052;2.047351;
637951342621696915;906.5875;30;4;1.5;1.1;2;694;2.16138328530259;-0.3420197;0.5603072;-0.175468;1.025726;0;2.5;-0.05606232;2.261428;
637951342627748271;907.1924;30;4;1.5;1.1;2;605;2.47933884297521;0.6427875;2.266045;0.5618829;2.070356;-0.3420197;0.5603072;-0.175468;1.025726;
637951342642801655;908.6978;30;4;1.5;1.1;2;1505;0.996677740863787;-0.8660251;0.9999995;-0.5842756;1.210597;0.6427875;2.266045;0.5618829;2.070356;
637951342663796368;910.7966;30;4;1.5;1.1;2;2099;0.714626012386851;0.9848077;1.673648;0.5000902;1.655208;-0.8660251;0.9999995;-0.5842756;1.210597;
637951342671788165;911.5965;30;4;1.5;1.1;2;800;1.875;-0.9848078;1.673648;-0.6839077;1.674639;0.9848077;1.673648;0.5000902;1.655208;
637951342704775574;914.8948;30;4;1.5;1.1;2;3298;0.454821103699212;0.8660256;1;0.517766;1.252802;-0.9848078;1.673648;-0.6839077;1.674639;
637951342758802832;920.2976;30;4;1.5;1.1;2;5403;0.277623542476402;-0.6427882;2.266044;-0.4709969;2.053066;0.8660256;1;0.517766;1.252802;
637951342768745066;921.2918;30;4;1.5;1.1;2;994;1.50905432595573;0.3420205;0.5603075;0.2818409;1.042949;-0.6427882;2.266044;-0.4709969;2.053066;
637951342810833750;925.5012;30;4;4.5;0.1;2.2;2210;2.03619909502262;-0.3762217;0.4663379;-0.3869553;0.4653214;0;2.6;-0.01204151;2.577272;
637951342824821177;926.9001;30;4;4.5;0.1;2.2;1399;3.21658327376698;0.7070663;2.342649;0.7356416;2.344726;-0.3762217;0.4663379;-0.3869553;0.4653214;
637951342838814317;928.2995;30;4;4.5;0.1;2.2;1399;3.21658327376698;-0.9526277;0.9499994;-0.9292199;0.9483699;0.7070663;2.342649;0.7356416;2.344726;
637951342857808583;930.199;30;4;4.5;0.1;2.2;1900;2.36842105263158;1.083289;1.691013;1.059178;1.693458;-0.9526277;0.9499994;-0.9292199;0.9483699;
637951342869091119;931.3337;30;4;4.5;0.1;2.2;1135;3.9647577092511;-1.083289;1.691012;-1.102883;1.652431;1.083289;1.691013;1.059178;1.693458;
637951342880803751;932.498;30;4;4.5;0.1;2.2;1164;3.8659793814433;0.9526281;0.9500003;0.9339719;0.9652006;-1.083289;1.691012;-1.102883;1.652431;
637951342892846455;933.7025;30;4;4.5;0.1;2.2;1205;3.7344398340249;-0.7070671;2.342648;-0.7023479;2.375561;0.9526281;0.9500003;0.9339719;0.9652006;
637951342931885222;937.6063;30;4;4.5;0.1;2.2;3904;1.15266393442623;0.3762226;0.4663382;0.3559871;0.4861351;-0.7070671;2.342648;-0.7023479;2.375561;
637951342955880612;940.0052;30;4;2;0.6;1.8;1499;1.33422281521014;-0.3078177;0.6542765;-0.3691618;0.9018695;0;2.4;0.001700426;2.195376;
637951342980866227;942.5042;30;4;2;0.6;1.8;2499;0.800320128051221;0.5785087;2.18944;0.3713544;2.094188;-0.3078177;0.6542765;-0.3691618;0.9018695;
637951342990938486;943.5037;30;4;2;0.6;1.8;1000;2;-0.7794226;1.05;-0.7706428;1.214438;0.5785087;2.18944;0.3713544;2.094188;
637951342998970290;944.3144;30;4;2;0.6;1.8;811;2.46609124537608;0.8863269;1.656283;0.7818934;1.593212;-0.7794226;1.05;-0.7706428;1.214438;
637951343022015460;946.6186;30;4;2;0.6;1.8;2304;0.868055555555555;-0.8863271;1.656283;-0.6919824;1.632647;0.8863269;1.656283;0.7818934;1.593212;
637951343035948596;948.0129;30;4;2;0.6;1.8;1394;1.43472022955524;0.779423;1.05;0.6213214;1.15744;-0.8863271;1.656283;-0.6919824;1.632647;
637951343045950844;949.0125;30;4;2;0.6;1.8;1000;2;-0.5785094;2.18944;-0.4944963;2.240191;0.779423;1.05;0.6213214;1.15744;
637951343067945781;951.2117;30;4;2;0.6;1.8;2199;0.909504320145521;0.3078185;0.6542768;0.2352484;0.8065503;-0.5785094;2.18944;-0.4944963;2.240191;
637951343097032302;954.1213;30;4;3;0.2;1.4;1811;1.65654334621756;-0.2394138;0.8422151;-0.2423078;0.86561;0;2.2;0.003732355;2.209944;
637951343110025219;955.4206;30;4;3;0.2;1.4;1299;2.3094688221709;0.4499513;2.036231;0.4246522;1.975222;-0.2394138;0.8422151;-0.2423078;0.86561;
637951343119067249;956.3248;30;4;3;0.2;1.4;904;3.31858407079646;-0.6062176;1.15;-0.5993888;1.118616;0.4499513;2.036231;0.4246522;1.975222;
637951343138021507;958.2194;30;4;3;0.2;1.4;1895;1.58311345646438;0.6893654;1.621554;0.6227347;1.599067;-0.6062176;1.15;-0.5993888;1.118616;
637951343147008324;959.1187;30;4;3;0.2;1.4;899;3.33704115684093;-0.6893655;1.621553;-0.6999435;1.578258;0.6893654;1.621554;0.6227347;1.599067;
637951343156008213;960.0183;30;4;3;0.2;1.4;900;3.33333333333333;0.6062179;1.15;0.6073027;1.204016;-0.6893655;1.621553;-0.6999435;1.578258;
637951343165008349;960.9177;30;4;3;0.2;1.4;899;3.33704115684093;-0.4499517;2.036231;-0.4230763;2.016647;0.6062179;1.15;0.6073027;1.204016;
637951343174001362;961.8176;30;4;3;0.2;1.4;900;3.33333333333333;0.2394144;0.8422153;0.2066559;0.9353505;-0.4499517;2.036231;-0.4230763;2.016647;
637951343195986307;964.0163;30;4;3.5;0.2;2;1099;3.18471337579618;-0.3420197;0.5603072;-0.3105197;0.6195991;0;2.5;-0.01139438;2.455568;
637951343206978776;965.1159;30;4;3.5;0.2;2;1100;3.18181818181818;0.6427875;2.266045;0.6172407;2.270249;-0.3420197;0.5603072;-0.3105197;0.6195991;
637951343215980797;966.0155;30;4;3.5;0.2;2;900;3.88888888888889;-0.8660251;0.9999995;-0.9200712;1.054179;0.6427875;2.266045;0.6172407;2.270249;
637951343224972816;966.9152;30;4;3.5;0.2;2;900;3.88888888888889;0.9848077;1.673648;0.8954389;1.709852;-0.8660251;0.9999995;-0.9200712;1.054179;
637951343234975068;967.9147;30;4;3.5;0.2;2;1000;3.5;-0.9848078;1.673648;-1.013657;1.665091;0.9848077;1.673648;0.8954389;1.709852;
637951343242966858;968.7145;30;4;3.5;0.2;2;800;4.375;0.8660256;1;0.8673315;1.069016;-0.9848078;1.673648;-1.013657;1.665091;
637951343252298953;969.6542;30;4;3.5;0.2;2;940;3.72340425531915;-0.6427882;2.266044;-0.612667;2.173053;0.8660256;1;0.8673315;1.069016;
637951343273063618;971.7241;30;4;3.5;0.2;2;2070;1.69082125603865;0.3420205;0.5603075;0.3114654;0.5042362;-0.6427882;2.266044;-0.612667;2.173053;
637951343299049454;974.3229;30;4;2.5;0.3;1.4;1500;1.66666666666667;-0.2394138;0.8422151;-0.154892;0.8165914;0;2.2;-0.01394363;2.187972;
637951343309051700;975.3224;30;4;2.5;0.3;1.4;999;2.5025025025025;0.4499513;2.036231;0.343181;2.084187;-0.2394138;0.8422151;-0.154892;0.8165914;
637951343318043720;976.2217;30;4;2.5;0.3;1.4;899;2.78086763070078;-0.6062176;1.15;-0.581736;1.17283;0.4499513;2.036231;0.343181;2.084187;
637951343339038436;978.3212;30;4;2.5;0.3;1.4;2100;1.19047619047619;0.6893654;1.621554;0.6112933;1.620528;-0.6062176;1.15;-0.581736;1.17283;
637951343370135419;981.4307;30;4;2.5;0.3;1.4;3109;0.804117079446767;-0.6893655;1.621553;-0.6262452;1.543766;0.6893654;1.621554;0.6112933;1.620528;
637951343380127669;982.4302;30;4;2.5;0.3;1.4;999;2.5025025025025;0.6062179;1.15;0.5289482;1.237178;-0.6893655;1.621553;-0.6262452;1.543766;
637951343389169697;983.3346;30;4;2.5;0.3;1.4;904;2.76548672566372;-0.4499517;2.036231;-0.3988132;2.003755;0.6062179;1.15;0.5289482;1.237178;
637951343405163289;984.9343;30;4;2.5;0.3;1.4;1600;1.5625;0.2394144;0.8422153;0.1843024;0.9232962;-0.4499517;2.036231;-0.3988132;2.003755;
637951343900329634;1034.45;30;5;3.5;0.2;2;1100;3.18181818181818;-0.3420197;0.5603072;-0.3223886;0.6312662;0;2.5;0.007927256;2.425464;
637951343935307015;1037.949;30;5;3.5;0.2;2;3498;1.00057175528874;0.6427875;2.266045;0.6116588;2.232381;-0.3420197;0.5603072;-0.3223886;0.6312662;
637951343949420187;1039.359;30;5;3.5;0.2;2;1411;2.48051027639972;-0.8660251;0.9999995;-0.8432758;1.066719;0.6427875;2.266045;0.6116588;2.232381;
637951343960407230;1040.459;30;5;3.5;0.2;2;1100;3.18181818181818;0.9848077;1.673648;1.02947;1.666577;-0.8660251;0.9999995;-0.8432758;1.066719;
637951343970406614;1041.458;30;5;3.5;0.2;2;999;3.5035035035035;-0.9848078;1.673648;-0.9940244;1.614502;0.9848077;1.673648;1.02947;1.666577;
637951343989396612;1043.357;30;5;3.5;0.2;2;1899;1.84307530279094;0.8660256;1;0.8286058;1.06388;-0.9848078;1.673648;-0.9940244;1.614502;
637951344003386576;1044.757;30;5;3.5;0.2;2;1399;2.50178699070765;-0.6427882;2.266044;-0.6111216;2.254892;0.8660256;1;0.8286058;1.06388;
637951344014388899;1045.856;30;5;3.5;0.2;2;1099;3.18471337579618;0.3420205;0.5603075;0.3159795;0.6370223;-0.6427882;2.266044;-0.6111216;2.254892;
637951344040374741;1048.455;30;5;3;0.2;1.4;1300;2.30769230769231;-0.2394138;0.8422151;-0.2246431;0.9375705;0;2.2;-0.02056919;2.167869;
637951344049376767;1049.356;30;5;3;0.2;1.4;901;3.32963374028857;0.4499513;2.036231;0.4223057;2.056662;-0.2394138;0.8422151;-0.2246431;0.9375705;
637951344093466664;1053.764;30;5;3;0.2;1.4;4408;0.680580762250454;-0.6062176;1.15;-0.5771337;1.173684;0.4499513;2.036231;0.4223057;2.056662;
637951344104449130;1054.863;30;5;3;0.2;1.4;1099;2.72975432211101;0.6893654;1.621554;0.7430216;1.670433;-0.6062176;1.15;-0.5771337;1.173684;
637951344122443172;1056.662;30;5;3;0.2;1.4;1799;1.66759310728182;-0.6893655;1.621553;-0.6739231;1.60457;0.6893654;1.621554;0.7430216;1.670433;
637951344146428559;1059.061;30;5;3;0.2;1.4;2399;1.25052105043768;0.6062179;1.15;0.5558043;1.198015;-0.6893655;1.621553;-0.6739231;1.60457;
637951344162432155;1060.66;30;5;3;0.2;1.4;1600;1.875;-0.4499517;2.036231;-0.4197623;1.997619;0.6062179;1.15;0.5558043;1.198015;
637951344175425067;1061.96;30;5;3;0.2;1.4;1300;2.30769230769231;0.2394144;0.8422153;0.2114516;0.8822497;-0.4499517;2.036231;-0.4197623;1.997619;
637951344198420238;1064.259;30;5;4.5;0.1;2.2;1100;4.09090909090909;-0.3762217;0.4663379;-0.347659;0.4899291;0;2.6;-0.01783732;2.589721;
637951344215404050;1065.958;30;5;4.5;0.1;2.2;1699;2.64861683343143;0.7070663;2.342649;0.708422;2.345471;-0.3762217;0.4663379;-0.347659;0.4899291;
637951344227506771;1067.168;30;5;4.5;0.1;2.2;1210;3.71900826446281;-0.9526277;0.9499994;-0.9356184;0.9933595;0.7070663;2.342649;0.708422;2.345471;
637951344237509021;1068.168;30;5;4.5;0.1;2.2;1000;4.5;1.083289;1.691013;1.055489;1.67481;-0.9526277;0.9499994;-0.9356184;0.9933595;
637951344252492380;1069.667;30;5;4.5;0.1;2.2;1499;3.00200133422282;-1.083289;1.691012;-1.060357;1.663271;1.083289;1.691013;1.055489;1.67481;
637951344266485524;1071.067;30;5;4.5;0.1;2.2;1399;3.21658327376698;0.9526281;0.9500003;0.9296657;0.9547892;-1.083289;1.691012;-1.060357;1.663271;
637951344289480688;1073.366;30;5;4.5;0.1;2.2;2299;1.9573727707699;-0.7070671;2.342648;-0.7107676;2.33396;0.9526281;0.9500003;0.9296657;0.9547892;
637951344306474508;1075.065;30;5;4.5;0.1;2.2;1699;2.64861683343143;0.3762226;0.4663382;0.3939014;0.4972676;-0.7070671;2.342648;-0.7107676;2.33396;
637951344321469326;1076.564;30;5;2.5;0.3;1.4;599;4.17362270450751;-0.2394138;0.8422151;-0.1929466;0.9632804;0;2.2;-0.04712255;2.129751;
637951344335452462;1077.963;30;5;2.5;0.3;1.4;1399;1.78699070764832;0.4499513;2.036231;0.4716032;1.940168;-0.2394138;0.8422151;-0.1929466;0.9632804;
637951344351616099;1079.579;30;5;2.5;0.3;1.4;1616;1.5470297029703;-0.6062176;1.15;-0.5237846;1.086132;0.4499513;2.036231;0.4716032;1.940168;
637951344368550733;1081.273;30;5;2.5;0.3;1.4;1694;1.47579693034238;0.6893654;1.621554;0.6155026;1.544946;-0.6062176;1.15;-0.5237846;1.086132;
637951344377604621;1082.178;30;5;2.5;0.3;1.4;905;2.76243093922652;-0.6893655;1.621553;-0.6674061;1.633187;0.6893654;1.621554;0.6155026;1.544946;
637951344385543635;1082.972;30;5;2.5;0.3;1.4;794;3.14861460957179;0.6062179;1.15;0.5648708;1.24492;-0.6893655;1.621553;-0.6674061;1.633187;
637951344395542871;1083.972;30;5;2.5;0.3;1.4;1000;2.5;-0.4499517;2.036231;-0.46241;2.078822;0.6062179;1.15;0.5648708;1.24492;
637951344410536236;1085.471;30;5;2.5;0.3;1.4;1499;1.66777851901268;0.2394144;0.8422153;0.2412206;0.8056296;-0.4499517;2.036231;-0.46241;2.078822;
637951344446524321;1089.07;30;5;2;0.6;1.8;1400;1.42857142857143;-0.3078177;0.6542765;-0.2162085;0.5841655;0;2.4;-0.004155571;2.404382;
637951344455516334;1089.969;30;5;2;0.6;1.8;900;2.22222222222222;0.5785087;2.18944;0.4551506;2.150052;-0.3078177;0.6542765;-0.2162085;0.5841655;
637951344464508356;1090.869;30;5;2;0.6;1.8;900;2.22222222222222;-0.7794226;1.05;-0.7158096;1.205892;0.5785087;2.18944;0.4551506;2.150052;
637951344471499926;1091.568;30;5;2;0.6;1.8;699;2.86123032904149;0.8863269;1.656283;0.7377547;1.66464;-0.7794226;1.05;-0.7158096;1.205892;
637951344483502622;1092.767;30;5;2;0.6;1.8;1200;1.66666666666667;-0.8863271;1.656283;-0.6832638;1.635455;0.8863269;1.656283;0.7377547;1.66464;
637951344491494416;1093.567;30;5;2;0.6;1.8;800;2.5;0.779423;1.05;0.7141193;1.133543;-0.8863271;1.656283;-0.6832638;1.635455;
637951344499606240;1094.379;30;5;2;0.6;1.8;811;2.46609124537608;-0.5785094;2.18944;-0.5006862;2.107911;0.779423;1.05;0.7141193;1.133543;
637951344506597810;1095.078;30;5;2;0.6;1.8;699;2.86123032904149;0.3078185;0.6542768;0.2896637;0.8731284;-0.5785094;2.18944;-0.5006862;2.107911;
637951344521651192;1096.582;30;5;1.5;1.1;2;705;2.12765957446809;-0.3420197;0.5603072;-0.2133203;0.8865863;0;2.5;-0.03383738;2.277439;
637951344537594773;1098.177;30;5;1.5;1.1;2;1594;0.941028858218319;0.6427875;2.266045;0.4820957;1.980721;-0.3420197;0.5603072;-0.2133203;0.8865863;
637951344556579035;1100.075;30;5;1.5;1.1;2;1899;0.789889415481833;-0.8660251;0.9999995;-0.5549966;1.265632;0.6427875;2.266045;0.4820957;1.980721;
637951344568571730;1101.275;30;5;1.5;1.1;2;1200;1.25;0.9848077;1.673648;0.5924554;1.700993;-0.8660251;0.9999995;-0.5549966;1.265632;
637951344583565097;1102.774;30;5;1.5;1.1;2;1499;1.00066711140761;-0.9848078;1.673648;-0.5679291;1.650135;0.9848077;1.673648;0.5924554;1.700993;
637951344591556894;1103.574;30;5;1.5;1.1;2;800;1.875;0.8660256;1;0.593867;1.253426;-0.9848078;1.673648;-0.5679291;1.650135;
637951344600558914;1104.473;30;5;1.5;1.1;2;899;1.66852057842047;-0.6427882;2.266044;-0.4580115;2.145946;0.8660256;1;0.593867;1.253426;
637951344620553404;1106.473;30;5;1.5;1.1;2;1999;0.750375187593797;0.3420205;0.5603075;0.1698705;1.002568;-0.6427882;2.266044;-0.4580115;2.145946;
637951344670634652;1111.481;30;5;4;0.1;1.4;2199;1.81900864029104;-0.2394138;0.8422151;-0.2315094;0.8532381;0;2.2;-0.02589152;2.172538;
637951344682637348;1112.681;30;5;4;0.1;1.4;1200;3.33333333333333;0.4499513;2.036231;0.4061566;2.045029;-0.2394138;0.8422151;-0.2315094;0.8532381;
637951344694625080;1113.88;30;5;4;0.1;1.4;1199;3.33611342785655;-0.6062176;1.15;-0.6175618;1.150525;0.4499513;2.036231;0.4061566;2.045029;
637951344715725799;1115.99;30;5;4;0.1;1.4;2110;1.8957345971564;0.6893654;1.621554;0.6628876;1.634829;-0.6062176;1.15;-0.6175618;1.150525;
637951344727718489;1117.19;30;5;4;0.1;1.4;1200;3.33333333333333;-0.6893655;1.621553;-0.7005875;1.631518;0.6893654;1.621554;0.6628876;1.634829;
637951344737720738;1118.189;30;5;4;0.1;1.4;1000;4;0.6062179;1.15;0.5692991;1.132855;-0.6893655;1.621553;-0.7005875;1.631518;
637951344750713654;1119.489;30;5;4;0.1;1.4;1300;3.07692307692308;-0.4499517;2.036231;-0.458757;2.05698;0.6062179;1.15;0.5692991;1.132855;
637951344762709248;1120.688;30;5;4;0.1;1.4;1199;3.33611342785655;0.2394144;0.8422153;0.228941;0.8626912;-0.4499517;2.036231;-0.458757;2.05698;
637951345263031815;1170.72;30;6;1.5;1.1;2;700;2.14285714285714;-0.3420197;0.5603072;-0.1369556;0.8638687;0;2.5;-0.03266793;2.238472;
637951345279015403;1172.32;30;6;1.5;1.1;2;1599;0.938086303939963;0.6427875;2.266045;0.4196344;2.089653;-0.3420197;0.5603072;-0.1369556;0.8638687;
637951345288017429;1173.219;30;6;1.5;1.1;2;899;1.66852057842047;-0.8660251;0.9999995;-0.6488533;1.194139;0.6427875;2.266045;0.4196344;2.089653;
637951345295949210;1174.013;30;6;1.5;1.1;2;794;1.88916876574307;0.9848077;1.673648;0.6290823;1.61207;-0.8660251;0.9999995;-0.6488533;1.194139;
637951345308011916;1175.219;30;6;1.5;1.1;2;1206;1.24378109452736;-0.9848078;1.673648;-0.6655657;1.633806;0.9848077;1.673648;0.6290823;1.61207;
637951345316003712;1176.018;30;6;1.5;1.1;2;799;1.87734668335419;0.8660256;1;0.5304337;1.153959;-0.9848078;1.673648;-0.6655657;1.633806;
637951345323995506;1176.818;30;6;1.5;1.1;2;800;1.875;-0.6427882;2.266044;-0.5162967;2.067033;0.8660256;1;0.5304337;1.153959;
637951345335988200;1178.017;30;6;1.5;1.1;2;1199;1.25104253544621;0.3420205;0.5603075;0.1507552;1.006342;-0.6427882;2.266044;-0.5162967;2.067033;
637951345372976509;1181.715;30;6;4.5;0.1;2.2;1400;3.21428571428571;-0.3762217;0.4663379;-0.3702433;0.512827;0;2.6;-0.01799649;2.571769;
637951345384969201;1182.915;30;6;4.5;0.1;2.2;1199;3.75312760633862;0.7070663;2.342649;0.6648316;2.353261;-0.3762217;0.4663379;-0.3702433;0.512827;
637951345416063887;1186.024;30;6;4.5;0.1;2.2;3110;1.44694533762058;-0.9526277;0.9499994;-0.968717;0.9305234;0.7070663;2.342649;0.6648316;2.353261;
637951345431057254;1187.524;30;6;4.5;0.1;2.2;1499;3.00200133422282;1.083289;1.691013;1.043742;1.6994;-0.9526277;0.9499994;-0.968717;0.9305234;
637951345448054206;1189.223;30;6;4.5;0.1;2.2;1699;2.64861683343143;-1.083289;1.691012;-1.088131;1.694698;1.083289;1.691013;1.043742;1.6994;
637951345466047866;1191.022;30;6;4.5;0.1;2.2;1799;2.50138966092273;0.9526281;0.9500003;0.9461071;0.945641;-1.083289;1.691012;-1.088131;1.694698;
637951345492027449;1193.621;30;6;4.5;0.1;2.2;2599;1.73143516737207;-0.7070671;2.342648;-0.6824452;2.310813;0.9526281;0.9500003;0.9461071;0.945641;
637951345509031268;1195.32;30;6;4.5;0.1;2.2;1699;2.64861683343143;0.3762226;0.4663382;0.3513879;0.4951745;-0.7070671;2.342648;-0.6824452;2.310813;
637951345543118925;1198.729;30;6;4;0.1;1.4;1399;2.85918513223731;-0.2394138;0.8422151;-0.2311266;0.8800181;0;2.2;-0.01537394;2.167706;
637951345578106782;1202.228;30;6;4;0.1;1.4;3499;1.14318376679051;0.4499513;2.036231;0.4121337;2.003551;-0.2394138;0.8422151;-0.2311266;0.8800181;
637951345591099701;1203.527;30;6;4;0.1;1.4;1299;3.07929176289453;-0.6062176;1.15;-0.5894223;1.169883;0.4499513;2.036231;0.4121337;2.003551;
637951345610083962;1205.426;30;6;4;0.1;1.4;1899;2.10637177461822;0.6893654;1.621554;0.6637609;1.626926;-0.6062176;1.15;-0.5894223;1.169883;
637951345624087109;1206.826;30;6;4;0.1;1.4;1400;2.85714285714286;-0.6893655;1.621553;-0.7139584;1.597629;0.6893654;1.621554;0.6637609;1.626926;
637951345636079803;1208.025;30;6;4;0.1;1.4;1200;3.33333333333333;0.6062179;1.15;0.5747568;1.187822;-0.6893655;1.621553;-0.7139584;1.597629;
637951345661065415;1210.524;30;6;4;0.1;1.4;2499;1.60064025610244;-0.4499517;2.036231;-0.4435977;2.008771;0.6062179;1.15;0.5747568;1.187822;
637951345682170154;1212.635;30;6;4;0.1;1.4;2110;1.8957345971564;0.2394144;0.8422153;0.2179803;0.8572836;-0.4499517;2.036231;-0.4435977;2.008771;
637951345729140702;1217.332;30;6;2;0.6;1.8;1599;1.25078173858662;-0.3078177;0.6542765;-0.2567513;0.8568302;0;2.4;-0.01839107;2.301866;
637951345754136318;1219.831;30;6;2;0.6;1.8;2499;0.800320128051221;0.5785087;2.18944;0.4136023;2.157129;-0.3078177;0.6542765;-0.2567513;0.8568302;
637951345765128786;1220.93;30;6;2;0.6;1.8;1099;1.81983621474067;-0.7794226;1.05;-0.7167227;1.175355;0.5785087;2.18944;0.4136023;2.157129;
637951345775125685;1221.93;30;6;2;0.6;1.8;1000;2;0.8863269;1.656283;0.712869;1.725197;-0.7794226;1.05;-0.7167227;1.175355;
637951345785123185;1222.93;30;6;2;0.6;1.8;1000;2;-0.8863271;1.656283;-0.8595278;1.67882;0.8863269;1.656283;0.712869;1.725197;
637951345794115204;1223.829;30;6;2;0.6;1.8;899;2.22469410456062;0.779423;1.05;0.6909398;1.220179;-0.8863271;1.656283;-0.8595278;1.67882;
637951345808108347;1225.229;30;6;2;0.6;1.8;1400;1.42857142857143;-0.5785094;2.18944;-0.5099446;2.115069;0.779423;1.05;0.6909398;1.220179;
637951345818110596;1226.228;30;6;2;0.6;1.8;1000;2;0.3078185;0.6542768;0.2861727;0.7693858;-0.5785094;2.18944;-0.5099446;2.115069;
637951345854193655;1229.837;30;6;3;0.2;1.4;1199;2.50208507089241;-0.2394138;0.8422151;-0.2173209;0.8667723;0;2.2;-0.02440074;2.183997;
637951345867186576;1231.137;30;6;3;0.2;1.4;1299;2.3094688221709;0.4499513;2.036231;0.3885051;2.034642;-0.2394138;0.8422151;-0.2173209;0.8667723;
637951345879189271;1232.336;30;6;3;0.2;1.4;1200;2.5;-0.6062176;1.15;-0.5816292;1.191359;0.4499513;2.036231;0.3885051;2.034642;
637951345892182191;1233.635;30;6;3;0.2;1.4;1299;2.3094688221709;0.6893654;1.621554;0.6242723;1.62579;-0.6062176;1.15;-0.5816292;1.191359;
637951345904174883;1234.835;30;6;3;0.2;1.4;1200;2.5;-0.6893655;1.621553;-0.6330939;1.588434;0.6893654;1.621554;0.6242723;1.62579;
637951345919168249;1236.334;30;6;3;0.2;1.4;1499;2.00133422281521;0.6062179;1.15;0.5257044;1.197106;-0.6893655;1.621553;-0.6330939;1.588434;
637951345935271869;1237.945;30;6;3;0.2;1.4;1611;1.86219739292365;-0.4499517;2.036231;-0.4111108;1.962144;0.6062179;1.15;0.5257044;1.197106;
637951345950265235;1239.444;30;6;3;0.2;1.4;1499;2.00133422281521;0.2394144;0.8422153;0.2264133;0.9116384;-0.4499517;2.036231;-0.4111108;1.962144;
637951345970249726;1241.443;30;6;2.5;0.3;1.4;1005;2.48756218905473;-0.2394138;0.8422151;-0.1811582;0.9181323;0;2.2;-0.002597054;2.099767;
637951345988243767;1243.242;30;6;2.5;0.3;1.4;1799;1.38966092273485;0.4499513;2.036231;0.4407889;1.9913;-0.2394138;0.8422151;-0.1811582;0.9181323;
637951346002236910;1244.641;30;6;2.5;0.3;1.4;1399;1.78699070764832;-0.6062176;1.15;-0.5233635;1.188511;0.4499513;2.036231;0.4407889;1.9913;
637951346010238698;1245.441;30;6;2.5;0.3;1.4;800;3.125;0.6893654;1.621554;0.7321891;1.674298;-0.6062176;1.15;-0.5233635;1.188511;
637951346020230950;1246.441;30;6;2.5;0.3;1.4;1000;2.5;-0.6893655;1.621553;-0.6639509;1.612593;0.6893654;1.621554;0.7321891;1.674298;
637951346029222969;1247.34;30;6;2.5;0.3;1.4;900;2.77777777777778;0.6062179;1.15;0.6107046;1.186632;-0.6893655;1.621553;-0.6639509;1.612593;
637951346056219032;1250.039;30;6;2.5;0.3;1.4;2699;0.926268988514265;-0.4499517;2.036231;-0.4134728;2.003823;0.6062179;1.15;0.6107046;1.186632;
637951346069211948;1251.338;30;6;2.5;0.3;1.4;1299;1.92455735180908;0.2394144;0.8422153;0.1632863;0.9474339;-0.4499517;2.036231;-0.4134728;2.003823;
637951346111301405;1255.547;30;6;3.5;0.2;2;2709;1.29198966408269;-0.3420197;0.5603072;-0.3433796;0.5693181;0;2.5;-0.0218599;2.468343;
637951346124294322;1256.847;30;6;3.5;0.2;2;1300;2.69230769230769;0.6427875;2.266045;0.5828714;2.216081;-0.3420197;0.5603072;-0.3433796;0.5693181;
637951346135289327;1257.947;30;6;3.5;0.2;2;1100;3.18181818181818;-0.8660251;0.9999995;-0.8295122;1.042114;0.6427875;2.266045;0.5828714;2.216081;
637951346153283367;1259.746;30;6;3.5;0.2;2;1799;1.94552529182879;0.9848077;1.673648;0.8992438;1.683411;-0.8660251;0.9999995;-0.8295122;1.042114;
637951346165276064;1260.945;30;6;3.5;0.2;2;1199;2.91909924937448;-0.9848078;1.673648;-0.9047883;1.648709;0.9848077;1.673648;0.8992438;1.683411;
637951346175266916;1261.944;30;6;3.5;0.2;2;999;3.5035035035035;0.8660256;1;0.8419117;0.9752317;-0.9848078;1.673648;-0.9047883;1.648709;
637951346186270628;1263.044;30;6;3.5;0.2;2;1100;3.18181818181818;-0.6427882;2.266044;-0.5757726;2.216604;0.8660256;1;0.8419117;0.9752317;
637951346197436154;1264.155;30;6;3.5;0.2;2;1110;3.15315315315315;0.3420205;0.5603075;0.3498223;0.6200061;-0.6427882;2.266044;-0.5757726;2.216604;
637951346640501722;1308.467;30;7;3.5;0.2;2;1099;3.18471337579618;-0.3420197;0.5603072;-0.3061101;0.5761178;0;2.5;0.01304244;2.449465;
637951346654494864;1309.867;30;7;3.5;0.2;2;1400;2.5;0.6427875;2.266045;0.5585434;2.267703;-0.3420197;0.5603072;-0.3061101;0.5761178;
637951346666487557;1311.066;30;7;3.5;0.2;2;1199;2.91909924937448;-0.8660251;0.9999995;-0.8000371;1.019996;0.6427875;2.266045;0.5585434;2.267703;
637951346677480028;1312.166;30;7;3.5;0.2;2;1099;3.18471337579618;0.9848077;1.673648;0.9387583;1.693208;-0.8660251;0.9999995;-0.8000371;1.019996;
637951346688472495;1313.265;30;7;3.5;0.2;2;1099;3.18471337579618;-0.9848078;1.673648;-0.9398904;1.65581;0.9848077;1.673648;0.9387583;1.693208;
637951346704466088;1314.865;30;7;3.5;0.2;2;1599;2.18886804252658;0.8660256;1;0.7927338;1.037378;-0.9848078;1.673648;-0.9398904;1.65581;
637951346714468333;1315.864;30;7;3.5;0.2;2;1000;3.5;-0.6427882;2.266044;-0.5756757;2.230355;0.8660256;1;0.7927338;1.037378;
637951346732452373;1317.663;30;7;3.5;0.2;2;1799;1.94552529182879;0.3420205;0.5603075;0.3159209;0.5701406;-0.6427882;2.266044;-0.5756757;2.230355;
637951346751556664;1319.574;30;7;2.5;0.3;1.4;1011;2.47279920870425;-0.2394138;0.8422151;-0.2340388;0.8816645;0;2.2;0.03650936;2.14577;
637951346763549358;1320.773;30;7;2.5;0.3;1.4;1199;2.08507089241034;0.4499513;2.036231;0.3481926;1.943044;-0.2394138;0.8422151;-0.2340388;0.8816645;
637951346773551606;1321.772;30;7;2.5;0.3;1.4;1000;2.5;-0.6062176;1.15;-0.6232197;1.126083;0.4499513;2.036231;0.3481926;1.943044;
637951346781543407;1322.572;30;7;2.5;0.3;1.4;800;3.125;0.6893654;1.621554;0.6420547;1.641549;-0.6062176;1.15;-0.6232197;1.126083;
637951346796536765;1324.071;30;7;2.5;0.3;1.4;1499;1.66777851901268;-0.6893655;1.621553;-0.5824988;1.60964;0.6893654;1.621554;0.6420547;1.641549;
637951346804528560;1324.871;30;7;2.5;0.3;1.4;800;3.125;0.6062179;1.15;0.4809176;1.223708;-0.6893655;1.621553;-0.5824988;1.60964;
637951346813530584;1325.771;30;7;2.5;0.3;1.4;900;2.77777777777778;-0.4499517;2.036231;-0.3609326;1.944227;0.6062179;1.15;0.4809176;1.223708;
637951346823522828;1326.77;30;7;2.5;0.3;1.4;1000;2.5;0.2394144;0.8422153;0.2181154;0.7612089;-0.4499517;2.036231;-0.3609326;1.944227;
637951346839516422;1328.37;30;7;1.5;1.1;2;800;1.875;-0.3420197;0.5603072;-0.1971418;0.8828213;0;2.5;-0.04592366;2.285319;
637951346845517770;1328.969;30;7;1.5;1.1;2;599;2.50417362270451;0.6427875;2.266045;0.4313612;2.156726;-0.3420197;0.5603072;-0.1971418;0.8828213;
637951346852489334;1329.667;30;7;1.5;1.1;2;698;2.14899713467049;-0.8660251;0.9999995;-0.4965501;1.244974;0.6427875;2.266045;0.4313612;2.156726;
637951346859510911;1330.369;30;7;1.5;1.1;2;702;2.13675213675214;0.9848077;1.673648;0.598829;1.739408;-0.8660251;0.9999995;-0.4965501;1.244974;
637951346866502482;1331.068;30;7;1.5;1.1;2;699;2.14592274678112;-0.9848078;1.673648;-0.7372747;1.595487;0.9848077;1.673648;0.598829;1.739408;
637951346873504055;1331.768;30;7;1.5;1.1;2;700;2.14285714285714;0.8660256;1;0.6199025;1.238977;-0.9848078;1.673648;-0.7372747;1.595487;
637951346880500676;1332.467;30;7;1.5;1.1;2;699;2.14592274678112;-0.6427882;2.266044;-0.4239331;1.883552;0.8660256;1;0.6199025;1.238977;
637951346887542431;1333.172;30;7;1.5;1.1;2;704;2.13068181818182;0.3420205;0.5603075;0.2545224;1.036828;-0.6427882;2.266044;-0.4239331;1.883552;
637951346910527589;1335.471;30;7;2;0.6;1.8;788;2.53807106598985;-0.3078177;0.6542765;-0.1759709;0.8358275;0;2.4;-0.02711664;2.215445;
637951346917589174;1336.177;30;7;2;0.6;1.8;706;2.8328611898017;0.5785087;2.18944;0.4233828;2.198117;-0.3078177;0.6542765;-0.1759709;0.8358275;
637951346925588885;1336.977;30;7;2;0.6;1.8;800;2.5;-0.7794226;1.05;-0.6330658;0.9496003;0.5785087;2.18944;0.4233828;2.198117;
637951346931592510;1337.577;30;7;2;0.6;1.8;600;3.33333333333333;0.8863269;1.656283;0.6396571;1.589088;-0.7794226;1.05;-0.6330658;0.9496003;
637951346938594081;1338.277;30;7;2;0.6;1.8;700;2.85714285714286;-0.8863271;1.656283;-0.7577769;1.60788;0.8863269;1.656283;0.6396571;1.589088;
637951346947576098;1339.176;30;7;2;0.6;1.8;899;2.22469410456062;0.779423;1.05;0.6021339;1.077472;-0.8863271;1.656283;-0.7577769;1.60788;
637951346954627684;1339.88;30;7;2;0.6;1.8;705;2.83687943262411;-0.5785094;2.18944;-0.4718193;2.13199;0.779423;1.05;0.6021339;1.077472;
637951346961619253;1340.58;30;7;2;0.6;1.8;699;2.86123032904149;0.3078185;0.6542768;0.3198151;0.9274033;-0.5785094;2.18944;-0.4718193;2.13199;
637951346979563284;1342.374;30;7;3;0.2;1.4;1099;2.72975432211101;-0.2394138;0.8422151;-0.242995;0.8892587;0;2.2;-0.01886116;2.271869;
637951346986554853;1343.073;30;7;3;0.2;1.4;699;4.29184549356223;0.4499513;2.036231;0.447794;1.978339;-0.2394138;0.8422151;-0.242995;0.8892587;
637951347007669596;1345.184;30;7;3;0.2;1.4;2110;1.4218009478673;-0.6062176;1.15;-0.6005357;1.164423;0.4499513;2.036231;0.447794;1.978339;
637951347019652289;1346.383;30;7;3;0.2;1.4;1199;2.50208507089241;0.6893654;1.621554;0.6101224;1.600387;-0.6062176;1.15;-0.6005357;1.164423;
637951347028704322;1347.288;30;7;3;0.2;1.4;905;3.31491712707182;-0.6893655;1.621553;-0.7035541;1.568288;0.6893654;1.621554;0.6101224;1.600387;
637951347035645882;1347.982;30;7;3;0.2;1.4;694;4.32276657060519;0.6062179;1.15;0.6190068;1.128619;-0.6893655;1.621553;-0.7035541;1.568288;
637951347042707465;1348.688;30;7;3;0.2;1.4;706;4.24929178470255;-0.4499517;2.036231;-0.4932756;2.050729;0.6062179;1.15;0.6190068;1.128619;
637951347063632166;1350.781;30;7;3;0.2;1.4;2093;1.43334925943622;0.2394144;0.8422153;0.1731903;0.8917915;-0.4499517;2.036231;-0.4932756;2.050729;
637951347091628455;1353.58;30;7;4;0.1;1.4;1269;3.15208825847124;-0.2394138;0.8422151;-0.2165814;0.8827523;0;2.2;-0.04514873;2.184026;
637951347102730946;1354.69;30;7;4;0.1;1.4;1110;3.6036036036036;0.4499513;2.036231;0.4240685;2.030762;-0.2394138;0.8422151;-0.2165814;0.8827523;
637951347109732521;1355.39;30;7;4;0.1;1.4;700;5.71428571428571;-0.6062176;1.15;-0.5609315;1.142958;0.4499513;2.036231;0.4240685;2.030762;
637951347118724539;1356.29;30;7;4;0.1;1.4;900;4.44444444444444;0.6893654;1.621554;0.7282652;1.639462;-0.6062176;1.15;-0.5609315;1.142958;
637951347135718359;1357.989;30;7;4;0.1;1.4;1699;2.35432607416127;-0.6893655;1.621553;-0.6698346;1.645428;0.6893654;1.621554;0.7282652;1.639462;
637951347145710601;1358.989;30;7;4;0.1;1.4;1000;4;0.6062179;1.15;0.5794714;1.131118;-0.6893655;1.621553;-0.6698346;1.645428;
637951347174697113;1361.887;30;7;4;0.1;1.4;2898;1.38026224982747;-0.4499517;2.036231;-0.4631122;2.030334;0.6062179;1.15;0.5794714;1.131118;
637951347205679224;1364.986;30;7;4;0.1;1.4;3099;1.29073894804776;0.2394144;0.8422153;0.1923074;0.8504862;-0.4499517;2.036231;-0.4631122;2.030334;
637951347233667845;1367.784;30;7;4.5;0.1;2.2;1499;3.00200133422282;-0.3762217;0.4663379;-0.3845;0.4977412;0;2.6;0.0005357135;2.576228;
637951347250659910;1369.484;30;7;4.5;0.1;2.2;1699;2.64861683343143;0.7070663;2.342649;0.6684048;2.313986;-0.3762217;0.4663379;-0.3845;0.4977412;
637951347275763741;1371.994;30;7;4.5;0.1;2.2;2510;1.79282868525896;-0.9526277;0.9499994;-0.9261273;0.9524427;0.7070663;2.342649;0.6684048;2.313986;
637951347287806148;1373.198;30;7;4.5;0.1;2.2;1204;3.7375415282392;1.083289;1.691013;1.042745;1.696162;-0.9526277;0.9499994;-0.9261273;0.9524427;
637951347297752540;1374.193;30;7;4.5;0.1;2.2;995;4.52261306532663;-1.083289;1.691012;-1.112645;1.687031;1.083289;1.691013;1.042745;1.696162;
637951347326731136;1377.091;30;7;4.5;0.1;2.2;2898;1.5527950310559;0.9526281;0.9500003;0.9357657;0.9395329;-1.083289;1.691012;-1.112645;1.687031;
637951347338726975;1378.29;30;7;4.5;0.1;2.2;1199;3.75312760633862;-0.7070671;2.342648;-0.6966118;2.316667;0.9526281;0.9500003;0.9357657;0.9395329;
637951347354720575;1379.89;30;7;4.5;0.1;2.2;1599;2.81425891181989;0.3762226;0.4663382;0.3395163;0.4386047;-0.7070671;2.342648;-0.6966118;2.316667;
