637952998419202360;282.3936;31;0;2.5;0.3;1.4;1499;1.66777851901268;-0.2394138;0.8422151;-0.2745211;0.9124618;0;2.2;0.002305528;2.166124;
637952998433301998;283.8041;31;0;2.5;0.3;1.4;1410;1.77304964539007;0.4499513;2.036231;0.4661348;2.067607;-0.2394138;0.8422151;-0.2745211;0.9124618;
637952998449293202;285.4034;31;0;2.5;0.3;1.4;1599;1.56347717323327;-0.6062176;1.15;-0.597972;1.227843;0.4499513;2.036231;0.4661348;2.067607;
637952998472292296;287.7025;31;0;2.5;0.3;1.4;2299;1.08742931709439;0.6893654;1.621554;0.5885176;1.612869;-0.6062176;1.15;-0.597972;1.227843;
637952998491276515;289.6014;31;0;2.5;0.3;1.4;1899;1.31648235913639;-0.6893655;1.621553;-0.6937212;1.642397;0.6893654;1.621554;0.5885176;1.612869;
637952998506269849;291.1006;31;0;2.5;0.3;1.4;1499;1.66777851901268;0.6062179;1.15;0.5622553;1.221353;-0.6893655;1.621553;-0.6937212;1.642397;
637952998523263626;292.8003;31;0;2.5;0.3;1.4;1700;1.47058823529412;-0.4499517;2.036231;-0.4611077;2.033291;0.6062179;1.15;0.5622553;1.221353;
637952998539267186;294.3996;31;0;2.5;0.3;1.4;1599;1.56347717323327;0.2394144;0.8422153;0.2463557;0.9042729;-0.4499517;2.036231;-0.4611077;2.033291;
637952998578235849;298.2975;31;0;4.5;0.1;2.2;1799;2.50138966092273;-0.3762217;0.4663379;-0.3891595;0.4925684;0;2.6;-0.008851028;2.612937;
637952998599350544;300.4079;31;0;4.5;0.1;2.2;2110;2.13270142180095;0.7070663;2.342649;0.6690303;2.311065;-0.3762217;0.4663379;-0.3891595;0.4925684;
637952998616334323;302.1069;31;0;4.5;0.1;2.2;1699;2.64861683343143;-0.9526277;0.9499994;-0.9611273;0.9932237;0.7070663;2.342649;0.6690303;2.311065;
637952998650311881;305.505;31;0;4.5;0.1;2.2;3398;1.32430841671572;1.083289;1.691013;1.064814;1.69832;-0.9526277;0.9499994;-0.9611273;0.9932237;
637952998672306762;307.7043;31;0;4.5;0.1;2.2;2199;2.04638472032742;-1.083289;1.691012;-1.0508;1.678126;1.083289;1.691013;1.064814;1.69832;
637952998692611280;309.7417;31;0;4.5;0.1;2.2;2037;2.20913107511046;0.9526281;0.9500003;0.9493682;0.999857;-1.083289;1.691012;-1.0508;1.678126;
637952998716286544;312.1024;31;0;4.5;0.1;2.2;2361;1.90597204574333;-0.7070671;2.342648;-0.7288871;2.352777;0.9526281;0.9500003;0.9493682;0.999857;
637952998741382124;314.6122;31;0;4.5;0.1;2.2;2510;1.79282868525896;0.3762226;0.4663382;0.3411248;0.4876242;-0.7070671;2.342648;-0.7288871;2.352777;
637952998772375348;317.7109;31;0;2;0.6;1.8;1300;1.53846153846154;-0.3078177;0.6542765;-0.2956833;0.8320584;0;2.4;0.0259346;2.412802;
637952998783362636;318.8102;31;0;2;0.6;1.8;1099;1.81983621474067;0.5785087;2.18944;0.4737732;2.253367;-0.3078177;0.6542765;-0.2956833;0.8320584;
637952998793364861;319.8101;31;0;2;0.6;1.8;1000;2;-0.7794226;1.05;-0.8003632;1.192066;0.5785087;2.18944;0.4737732;2.253367;
637952998818360415;322.309;31;0;2;0.6;1.8;2499;0.800320128051221;0.8863269;1.656283;0.7104918;1.740931;-0.7794226;1.05;-0.8003632;1.192066;
637952998830340281;323.5081;31;0;2;0.6;1.8;1199;1.66805671392827;-0.8863271;1.656283;-0.821236;1.81258;0.8863269;1.656283;0.7104918;1.740931;
637952998842341270;324.7082;31;0;2;0.6;1.8;1200;1.66666666666667;0.779423;1.05;0.6794897;1.217921;-0.8863271;1.656283;-0.821236;1.81258;
637952998855334410;326.007;31;0;2;0.6;1.8;1299;1.53964588144727;-0.5785094;2.18944;-0.4220716;2.129405;0.779423;1.05;0.6794897;1.217921;
637952998868330953;327.3067;31;0;2;0.6;1.8;1300;1.53846153846154;0.3078185;0.6542768;0.2472414;0.8025825;-0.5785094;2.18944;-0.4220716;2.129405;
637952998902418524;330.7159;31;0;4;0.1;1.4;1499;2.66844563042028;-0.2394138;0.8422151;-0.2359029;0.875779;0;2.2;-0.01412147;2.238541;
637952998916421637;332.1154;31;0;4;0.1;1.4;1399;2.85918513223731;0.4499513;2.036231;0.4190428;2.046037;-0.2394138;0.8422151;-0.2359029;0.875779;
637952998931414968;333.615;31;0;4;0.1;1.4;1500;2.66666666666667;-0.6062176;1.15;-0.5784436;1.145607;0.4499513;2.036231;0.4190428;2.046037;
637952998952399636;335.7138;31;0;4;0.1;1.4;2099;1.90566936636494;0.6893654;1.621554;0.6520488;1.626322;-0.6062176;1.15;-0.5784436;1.145607;
637952998982386299;338.7125;31;0;4;0.1;1.4;2999;1.33377792597533;-0.6893655;1.621553;-0.7203907;1.616138;0.6893654;1.621554;0.6520488;1.626322;
637952999003380969;340.8114;31;0;4;0.1;1.4;2099;1.90566936636494;0.6062179;1.15;0.5769224;1.178076;-0.6893655;1.621553;-0.7203907;1.616138;
637952999041359415;344.6097;31;0;4;0.1;1.4;3798;1.05318588730911;-0.4499517;2.036231;-0.4702698;2.055698;0.6062179;1.15;0.5769224;1.178076;
637952999058463218;346.32;31;0;4;0.1;1.4;1710;2.33918128654971;0.2394144;0.8422153;0.1939166;0.8622655;-0.4499517;2.036231;-0.4702698;2.055698;
637952999079457885;348.419;31;0;1.5;1.1;2;1000;1.5;-0.3420197;0.5603072;-0.2285788;0.9654886;0;2.5;0.05229975;2.231428;
637952999089450104;349.4186;31;0;1.5;1.1;2;1000;1.5;0.6427875;2.266045;0.345077;2.122929;-0.3420197;0.5603072;-0.2285788;0.9654886;
637952999098442098;350.3179;31;0;1.5;1.1;2;899;1.66852057842047;-0.8660251;0.9999995;-0.6385429;1.169544;0.6427875;2.266045;0.345077;2.122929;
637952999107444107;351.2176;31;0;1.5;1.1;2;900;1.66666666666667;0.9848077;1.673648;0.9708905;1.808141;-0.8660251;0.9999995;-0.6385429;1.169544;
637952999116436111;352.1175;31;0;1.5;1.1;2;900;1.66666666666667;-0.9848078;1.673648;-0.7228785;1.597842;0.9848077;1.673648;0.9708905;1.808141;
637952999125428107;353.0169;31;0;1.5;1.1;2;899;1.66852057842047;0.8660256;1;0.6564653;1.333998;-0.9848078;1.673648;-0.7228785;1.597842;
637952999133429889;353.8165;31;0;1.5;1.1;2;800;1.875;-0.6427882;2.266044;-0.4925056;2.2572;0.8660256;1;0.6564653;1.333998;
637952999146422774;355.1161;31;0;1.5;1.1;2;1300;1.15384615384615;0.3420205;0.5603075;0.3244256;0.8785331;-0.6427882;2.266044;-0.4925056;2.2572;
637952999184402126;358.914;31;0;3.5;0.2;2;2299;1.52240104393214;-0.3420197;0.5603072;-0.3501694;0.6219933;0;2.5;0.007373756;2.510656;
637952999199515488;360.4247;31;0;3.5;0.2;2;1511;2.31634679020516;0.6427875;2.266045;0.5596181;2.262505;-0.3420197;0.5603072;-0.3501694;0.6219933;
637952999221498197;362.6233;31;0;3.5;0.2;2;2199;1.59163256025466;-0.8660251;0.9999995;-0.8508167;1.018292;0.6427875;2.266045;0.5596181;2.262505;
637952999242482949;364.7224;31;0;3.5;0.2;2;2099;1.66746069556932;0.9848077;1.673648;0.9440895;1.710509;-0.8660251;0.9999995;-0.8508167;1.018292;
637952999259481030;366.422;31;0;3.5;0.2;2;1700;2.05882352941176;-0.9848078;1.673648;-0.9928164;1.695358;0.9848077;1.673648;0.9440895;1.710509;
637952999272473919;367.7213;31;0;3.5;0.2;2;1299;2.69438029253272;0.8660256;1;0.8322532;1.059805;-0.9848078;1.673648;-0.9928164;1.695358;
637952999287467252;369.2204;31;0;3.5;0.2;2;1499;2.33488992661775;-0.6427882;2.266044;-0.5772484;2.258043;0.8660256;1;0.8322532;1.059805;
637952999303460806;370.8199;31;0;3.5;0.2;2;1599;2.18886804252658;0.3420205;0.5603075;0.3370878;0.5846649;-0.6427882;2.266044;-0.5772484;2.258043;
637952999330446809;373.5187;31;0;3;0.2;1.4;1299;2.3094688221709;-0.2394138;0.8422151;-0.2666846;0.9333296;0;2.2;-0.001186122;2.208439;
637952999344549945;374.9291;31;0;3;0.2;1.4;1410;2.12765957446809;0.4499513;2.036231;0.4383283;2.053969;-0.2394138;0.8422151;-0.2666846;0.9333296;
637952999357542832;376.2283;31;0;3;0.2;1.4;1299;2.3094688221709;-0.6062176;1.15;-0.6225689;1.137107;0.4499513;2.036231;0.4383283;2.053969;
637952999377537280;378.2279;31;0;3;0.2;1.4;2000;1.5;0.6893654;1.621554;0.6540872;1.653003;-0.6062176;1.15;-0.6225689;1.137107;
637952999388529724;379.3269;31;0;3;0.2;1.4;1099;2.72975432211101;-0.6893655;1.621553;-0.6871428;1.660406;0.6893654;1.621554;0.6540872;1.653003;
637952999398531947;380.3266;31;0;3;0.2;1.4;1000;3;0.6062179;1.15;0.5560279;1.233738;-0.6893655;1.621553;-0.6871428;1.660406;
637952999408524165;381.3261;31;0;3;0.2;1.4;1000;3;-0.4499517;2.036231;-0.43499;2.020646;0.6062179;1.15;0.5560279;1.233738;
637952999420516835;382.5256;31;0;3;0.2;1.4;1200;2.5;0.2394144;0.8422153;0.2157874;0.9100454;-0.4499517;2.036231;-0.43499;2.020646;
637953001065190404;546.9941;31;1;4;0.1;1.4;2299;1.73988690735102;-0.2394138;0.8422151;-0.2580757;0.8511355;0;2.2;-0.003674919;2.170594;
637953001088286425;549.3044;31;1;4;0.1;1.4;2310;1.73160173160173;0.4499513;2.036231;0.4556537;2.042971;-0.2394138;0.8422151;-0.2580757;0.8511355;
637953001105610278;551.0436;31;1;4;0.1;1.4;1739;2.30017251293847;-0.6062176;1.15;-0.6130314;1.103065;0.4499513;2.036231;0.4556537;2.042971;
637953001118274614;552.3029;31;1;4;0.1;1.4;1259;3.17712470214456;0.6893654;1.621554;0.6603783;1.610034;-0.6062176;1.15;-0.6130314;1.103065;
637953001131267060;553.6025;31;1;4;0.1;1.4;1300;3.07692307692308;-0.6893655;1.621553;-0.6470223;1.636707;0.6893654;1.621554;0.6603783;1.610034;
637953001166253071;557.1006;31;1;4;0.1;1.4;3498;1.14351057747284;0.6062179;1.15;0.614473;1.170809;-0.6893655;1.621553;-0.6470223;1.636707;
637953001191238621;559.5995;31;1;4;0.1;1.4;2499;1.60064025610244;-0.4499517;2.036231;-0.4353685;2.019192;0.6062179;1.15;0.614473;1.170809;
637953001211343094;561.61;31;1;4;0.1;1.4;2010;1.99004975124378;0.2394144;0.8422153;0.2450152;0.8902646;-0.4499517;2.036231;-0.4353685;2.019192;
637953001242329987;564.7085;31;1;4.5;0.1;2.2;1499;3.00200133422282;-0.3762217;0.4663379;-0.335305;0.4937046;0;2.6;-0.01620169;2.57584;
637953001257323320;566.2076;31;1;4.5;0.1;2.2;1499;3.00200133422282;0.7070663;2.342649;0.685481;2.304294;-0.3762217;0.4663379;-0.335305;0.4937046;
637953001310295095;571.505;31;1;4.5;0.1;2.2;5297;0.84953747404191;-0.9526277;0.9499994;-0.9369293;0.9532924;0.7070663;2.342649;0.685481;2.304294;
637953001332281049;573.7042;31;1;4.5;0.1;2.2;2199;2.04638472032742;1.083289;1.691013;1.079762;1.687729;-0.9526277;0.9499994;-0.9369293;0.9532924;
637953001345603921;575.0435;31;1;4.5;0.1;2.2;1339;3.36071695294996;-1.083289;1.691012;-1.045185;1.721893;1.083289;1.691013;1.079762;1.687729;
637953001368382508;577.3136;31;1;4.5;0.1;2.2;2270;1.98237885462555;0.9526281;0.9500003;0.9224213;0.9653878;-1.083289;1.691012;-1.045185;1.721893;
637953001380375174;578.5131;31;1;4.5;0.1;2.2;1200;3.75;-0.7070671;2.342648;-0.6938413;2.366174;0.9526281;0.9500003;0.9224213;0.9653878;
637953001396368732;580.1124;31;1;4.5;0.1;2.2;1599;2.81425891181989;0.3762226;0.4663382;0.3595489;0.4841242;-0.7070671;2.342648;-0.6938413;2.366174;
637953001411352058;581.6113;31;1;1.5;1.1;2;699;2.14592274678112;-0.3420197;0.5603072;-0.2871338;0.9465443;0;2.5;0.07162029;2.426917;
637953001418353614;582.3113;31;1;1.5;1.1;2;700;2.14285714285714;0.6427875;2.266045;0.4156856;2.113391;-0.3420197;0.5603072;-0.2871338;0.9465443;
637953001425355174;583.0109;31;1;1.5;1.1;2;700;2.14285714285714;-0.8660251;0.9999995;-0.8322297;1.286658;0.6427875;2.266045;0.4156856;2.113391;
637953001432356729;583.7119;31;1;1.5;1.1;2;701;2.1398002853067;0.9848077;1.673648;1.069154;1.677639;-0.8660251;0.9999995;-0.8322297;1.286658;
637953001439348285;584.4103;31;1;1.5;1.1;2;698;2.14899713467049;-0.9848078;1.673648;-0.8415863;1.645979;0.9848077;1.673648;1.069154;1.677639;
637953001446339837;585.1098;31;1;1.5;1.1;2;700;2.14285714285714;0.8660256;1;0.7969611;1.359699;-0.9848078;1.673648;-0.8415863;1.645979;
637953001453341398;585.8095;31;1;1.5;1.1;2;700;2.14285714285714;-0.6427882;2.266044;-0.6251082;2.301267;0.8660256;1;0.7969611;1.359699;
637953001460342954;586.5095;31;1;1.5;1.1;2;700;2.14285714285714;0.3420205;0.5603075;0.3011155;0.959309;-0.6427882;2.266044;-0.6251082;2.301267;
637953001475326284;588.0084;31;1;2.5;0.3;1.4;799;3.12891113892365;-0.2394138;0.8422151;-0.2654702;0.9331077;0;2.2;0.08675683;2.264485;
637953001483328063;588.8082;31;1;2.5;0.3;1.4;800;3.125;0.4499513;2.036231;0.4461806;2.060056;-0.2394138;0.8422151;-0.2654702;0.9331077;
637953001492320063;589.7078;31;1;2.5;0.3;1.4;900;2.77777777777778;-0.6062176;1.15;-0.669463;1.235626;0.4499513;2.036231;0.4461806;2.060056;
637953001500311843;590.5074;31;1;2.5;0.3;1.4;800;3.125;0.6893654;1.621554;0.6083228;1.717374;-0.6062176;1.15;-0.669463;1.235626;
637953001508313617;591.3074;31;1;2.5;0.3;1.4;800;3.125;-0.6893655;1.621553;-0.6430221;1.632737;0.6893654;1.621554;0.6083228;1.717374;
637953001515425199;592.018;31;1;2.5;0.3;1.4;711;3.51617440225035;0.6062179;1.15;0.6667834;1.254698;-0.6893655;1.621553;-0.6430221;1.632737;
637953001523316955;592.8074;31;1;2.5;0.3;1.4;789;3.16856780735108;-0.4499517;2.036231;-0.3426548;2.081818;0.6062179;1.15;0.6667834;1.254698;
637953001530418534;593.5173;31;1;2.5;0.3;1.4;710;3.52112676056338;0.2394144;0.8422153;0.1987366;0.9151497;-0.4499517;2.036231;-0.3426548;2.081818;
637953001545411866;595.0164;31;1;2;0.6;1.8;799;2.50312891113892;-0.3078177;0.6542765;-0.3972473;0.8687961;0;2.4;0.08647089;2.257539;
637953001552413428;595.7166;31;1;2;0.6;1.8;700;2.85714285714286;0.5785087;2.18944;0.5849095;2.119438;-0.3078177;0.6542765;-0.3972473;0.8687961;
637953001559404976;596.4159;31;1;2;0.6;1.8;699;2.86123032904149;-0.7794226;1.05;-0.8184465;1.299855;0.5785087;2.18944;0.5849095;2.119438;
637953001576388756;598.1151;31;1;2;0.6;1.8;1699;1.17716303708064;0.8863269;1.656283;0.7034464;1.740522;-0.7794226;1.05;-0.8184465;1.299855;
637953001584390526;598.9148;31;1;2;0.6;1.8;800;2.5;-0.8863271;1.656283;-0.696408;1.812523;0.8863269;1.656283;0.7034464;1.740522;
637953001591382085;599.6144;31;1;2;0.6;1.8;700;2.85714285714286;0.779423;1.05;0.7707576;1.217988;-0.8863271;1.656283;-0.696408;1.812523;
637953001598383637;600.3142;31;1;2;0.6;1.8;700;2.85714285714286;-0.5785094;2.18944;-0.3826946;2.102898;0.779423;1.05;0.7707576;1.217988;
637953001607375641;601.2137;31;1;2;0.6;1.8;899;2.22469410456062;0.3078185;0.6542768;0.2487566;0.8353515;-0.5785094;2.18944;-0.3826946;2.102898;
637953001629370533;603.4128;31;1;3;0.2;1.4;1200;2.5;-0.2394138;0.8422151;-0.1622179;0.8472636;0;2.2;-0.009813983;2.12187;
637953001637482337;604.2236;31;1;3;0.2;1.4;811;3.69913686806412;0.4499513;2.036231;0.4590251;2.073348;-0.2394138;0.8422151;-0.1622179;0.8472636;
637953001645467902;605.023;31;1;3;0.2;1.4;799;3.75469336670839;-0.6062176;1.15;-0.5512196;1.227899;0.4499513;2.036231;0.4590251;2.073348;
637953001657468148;606.2225;31;1;3;0.2;1.4;1200;2.5;0.6893654;1.621554;0.6697217;1.653547;-0.6062176;1.15;-0.5512196;1.227899;
637953001667460366;607.2219;31;1;3;0.2;1.4;999;3.003003003003;-0.6893655;1.621553;-0.7219548;1.656468;0.6893654;1.621554;0.6697217;1.653547;
637953001676462368;608.1216;31;1;3;0.2;1.4;900;3.33333333333333;0.6062179;1.15;0.5252762;1.205195;-0.6893655;1.621553;-0.7219548;1.656468;
637953001695449947;610.0207;31;1;3;0.2;1.4;1899;1.57977883096367;-0.4499517;2.036231;-0.3861216;2.060688;0.6062179;1.15;0.5252762;1.205195;
637953001711440011;611.6199;31;1;3;0.2;1.4;1599;1.87617260787993;0.2394144;0.8422153;0.2646807;0.9072787;-0.4499517;2.036231;-0.3861216;2.060688;
637953001734432254;613.9186;31;1;3.5;0.2;2;1099;3.18471337579618;-0.3420197;0.5603072;-0.3200527;0.6378546;0;2.5;-0.001917719;2.493518;
637953001746420131;615.1181;31;1;3.5;0.2;2;1199;2.91909924937448;0.6427875;2.266045;0.633856;2.266456;-0.3420197;0.5603072;-0.3200527;0.6378546;
637953001758528639;616.3289;31;1;3.5;0.2;2;1211;2.89017341040462;-0.8660251;0.9999995;-0.7975481;1.043302;0.6427875;2.266045;0.633856;2.266456;
637953001769528386;617.4285;31;1;3.5;0.2;2;1100;3.18181818181818;0.9848077;1.673648;0.9286146;1.71163;-0.8660251;0.9999995;-0.7975481;1.043302;
637953001790512831;619.5274;31;1;3.5;0.2;2;2099;1.66746069556932;-0.9848078;1.673648;-0.9541021;1.723071;0.9848077;1.673648;0.9286146;1.71163;
637953001802508222;620.7271;31;1;3.5;0.2;2;1200;2.91666666666667;0.8660256;1;0.8465523;1.078382;-0.9848078;1.673648;-0.9541021;1.723071;
637953001814505440;621.9263;31;1;3.5;0.2;2;1199;2.91909924937448;-0.6427882;2.266044;-0.5548648;2.27371;0.8660256;1;0.8465523;1.078382;
637953001826498105;623.126;31;1;3.5;0.2;2;1200;2.91666666666667;0.3420205;0.5603075;0.3319463;0.6042513;-0.6427882;2.266044;-0.5548648;2.27371;
637953002531725320;693.6489;31;2;4;0.1;1.4;1599;2.50156347717323;-0.2394138;0.8422151;-0.2453839;0.8759042;0;2.2;-0.00722795;2.178067;
637953002541727544;694.6484;31;2;4;0.1;1.4;1000;4;0.4499513;2.036231;0.4404852;2.038682;-0.2394138;0.8422151;-0.2453839;0.8759042;
637953002551719768;695.6479;31;2;4;0.1;1.4;999;4.004004004004;-0.6062176;1.15;-0.5832324;1.164096;0.4499513;2.036231;0.4404852;2.038682;
637953002564712654;696.9471;31;2;4;0.1;1.4;1299;3.07929176289453;0.6893654;1.621554;0.6531452;1.634879;-0.6062176;1.15;-0.5832324;1.164096;
637953002575705101;698.0469;31;2;4;0.1;1.4;1100;3.63636363636364;-0.6893655;1.621553;-0.6868117;1.652404;0.6893654;1.621554;0.6531452;1.634879;
637953002590818457;699.5574;31;2;4;0.1;1.4;1510;2.64900662251656;0.6062179;1.15;0.5936727;1.190806;-0.6893655;1.621553;-0.6868117;1.652404;
637953002599810457;700.4567;31;2;4;0.1;1.4;899;4.44938820912125;-0.4499517;2.036231;-0.417927;2.041669;0.6062179;1.15;0.5936727;1.190806;
637953002611803126;701.6561;31;2;4;0.1;1.4;1199;3.33611342785655;0.2394144;0.8422153;0.2380619;0.8842492;-0.4499517;2.036231;-0.417927;2.041669;
637953002633786667;703.855;31;2;2.5;0.3;1.4;899;2.78086763070078;-0.2394138;0.8422151;-0.202667;0.9682177;0;2.2;-0.03691795;2.22197;
637953002641788443;704.6547;31;2;2.5;0.3;1.4;800;3.125;0.4499513;2.036231;0.4557176;2.071959;-0.2394138;0.8422151;-0.202667;0.9682177;
637953002648779999;705.3543;31;2;2.5;0.3;1.4;700;3.57142857142857;-0.6062176;1.15;-0.5566808;1.229747;0.4499513;2.036231;0.4557176;2.071959;
637953002658782221;706.3539;31;2;2.5;0.3;1.4;1000;2.5;0.6893654;1.621554;0.7136701;1.666263;-0.6062176;1.15;-0.5566808;1.229747;
637953002665773775;707.0536;31;2;2.5;0.3;1.4;700;3.57142857142857;-0.6893655;1.621553;-0.6493209;1.717979;0.6893654;1.621554;0.7136701;1.666263;
637953002675775894;708.0533;31;2;2.5;0.3;1.4;1000;2.5;0.6062179;1.15;0.580978;1.244103;-0.6893655;1.621553;-0.6493209;1.717979;
637953002687766701;709.2527;31;2;2.5;0.3;1.4;1199;2.08507089241034;-0.4499517;2.036231;-0.3405181;2.113249;0.6062179;1.15;0.580978;1.244103;
637953002710756441;711.5517;31;2;2.5;0.3;1.4;2299;1.08742931709439;0.2394144;0.8422153;0.2033642;0.9186571;-0.4499517;2.036231;-0.3405181;2.113249;
637953002726749996;713.1511;31;2;1.5;1.1;2;799;1.87734668335419;-0.3420197;0.5603072;-0.3710623;1.068235;0;2.5;0.03069816;2.207189;
637953002733861578;713.8616;31;2;1.5;1.1;2;711;2.10970464135021;0.6427875;2.266045;0.4405943;2.10451;-0.3420197;0.5603072;-0.3710623;1.068235;
637953002740853133;714.5612;31;2;1.5;1.1;2;700;2.14285714285714;-0.8660251;0.9999995;-0.76025;1.222005;0.6427875;2.266045;0.4405943;2.10451;
637953002747844686;715.2607;31;2;1.5;1.1;2;700;2.14285714285714;0.9848077;1.673648;0.7769442;1.674719;-0.8660251;0.9999995;-0.76025;1.222005;
637953002752845799;715.761;31;2;1.5;1.1;2;500;3;-0.9848078;1.673648;-0.8008608;1.725868;0.9848077;1.673648;0.7769442;1.674719;
637953002759847355;716.4604;31;2;1.5;1.1;2;699;2.14592274678112;0.8660256;1;0.7335774;1.327382;-0.9848078;1.673648;-0.8008608;1.725868;
637953002765838685;717.0602;31;2;1.5;1.1;2;600;2.5;-0.6427882;2.266044;-0.3139986;2.378774;0.8660256;1;0.7335774;1.327382;
637953002771840022;717.66;31;2;1.5;1.1;2;600;2.5;0.3420205;0.5603075;0.5202578;0.8518037;-0.6427882;2.266044;-0.3139986;2.378774;
637953002788823800;719.3588;31;2;3.5;0.2;2;999;3.5035035035035;-0.3420197;0.5603072;-0.3449079;0.5962551;0;2.5;0.05359862;2.464587;
637953002800826468;720.5585;31;2;3.5;0.2;2;1200;2.91666666666667;0.6427875;2.266045;0.5758571;2.228637;-0.3420197;0.5603072;-0.3449079;0.5962551;
637953002812819133;721.7579;31;2;3.5;0.2;2;1199;2.91909924937448;-0.8660251;0.9999995;-0.8335591;1.038316;0.6427875;2.266045;0.5758571;2.228637;
637953002821811131;722.6573;31;2;3.5;0.2;2;899;3.89321468298109;0.9848077;1.673648;0.9085848;1.72168;-0.8660251;0.9999995;-0.8335591;1.038316;
637953002833813800;723.8572;31;2;3.5;0.2;2;1200;2.91666666666667;-0.9848078;1.673648;-1.003807;1.698416;0.9848077;1.673648;0.9085848;1.72168;
637953002865790909;727.0555;31;2;3.5;0.2;2;3198;1.09443402126329;0.8660256;1;0.7874846;1.005975;-0.9848078;1.673648;-1.003807;1.698416;
637953002876793360;728.155;31;2;3.5;0.2;2;1100;3.18181818181818;-0.6427882;2.266044;-0.6341332;2.252719;0.8660256;1;0.7874846;1.005975;
637953002891896714;729.6657;31;2;3.5;0.2;2;1511;2.31634679020516;0.3420205;0.5603075;0.3536358;0.5572646;-0.6427882;2.266044;-0.6341332;2.252719;
637953002912151217;731.6987;31;2;3;0.2;1.4;1034;2.90135396518375;-0.2394138;0.8422151;-0.1513223;0.8893176;0;2.2;-0.006613446;2.193346;
637953002921883380;732.664;31;2;3;0.2;1.4;965;3.10880829015544;0.4499513;2.036231;0.4572524;2.074211;-0.2394138;0.8422151;-0.1513223;0.8893176;
637953002932875825;733.7635;31;2;3;0.2;1.4;1099;2.72975432211101;-0.6062176;1.15;-0.5738064;1.200022;0.4499513;2.036231;0.4572524;2.074211;
637953002940867600;734.5633;31;2;3;0.2;1.4;800;3.75;0.6893654;1.621554;0.6351345;1.632687;-0.6062176;1.15;-0.5738064;1.200022;
637953002950869824;735.5631;31;2;3;0.2;1.4;1000;3;-0.6893655;1.621553;-0.6978489;1.664446;0.6893654;1.621554;0.6351345;1.632687;
637953002960862047;736.562;31;2;3;0.2;1.4;999;3.003003003003;0.6062179;1.15;0.611625;1.204152;-0.6893655;1.621553;-0.6978489;1.664446;
637953002967853603;737.2616;31;2;3;0.2;1.4;700;4.28571428571429;-0.4499517;2.036231;-0.454746;2.058721;0.6062179;1.15;0.611625;1.204152;
637953002977855826;738.2614;31;2;3;0.2;1.4;1000;3;0.2394144;0.8422153;0.2547266;0.9242789;-0.4499517;2.036231;-0.454746;2.058721;
637953002995843072;740.0608;31;2;2;0.6;1.8;1100;1.81818181818182;-0.3078177;0.6542765;-0.2521024;0.8985989;0;2.4;-0.08226427;2.444597;
637953003003834845;740.86;31;2;2;0.6;1.8;799;2.50312891113892;0.5785087;2.18944;0.5011053;2.142057;-0.3078177;0.6542765;-0.2521024;0.8985989;
637953003014837294;741.9597;31;2;2;0.6;1.8;1100;1.81818181818182;-0.7794226;1.05;-0.7419253;1.224445;0.5785087;2.18944;0.5011053;2.142057;
637953003020948655;742.5706;31;2;2;0.6;1.8;611;3.27332242225859;0.8863269;1.656283;0.7667109;1.655796;-0.7794226;1.05;-0.7419253;1.224445;
637953003028938661;743.3702;31;2;2;0.6;1.8;800;2.5;-0.8863271;1.656283;-0.7702869;1.656098;0.8863269;1.656283;0.7667109;1.655796;
637953003036930457;744.1696;31;2;2;0.6;1.8;799;2.50312891113892;0.779423;1.05;0.6211202;1.233449;-0.8863271;1.656283;-0.7702869;1.656098;
637953003046937133;745.1693;31;2;2;0.6;1.8;1000;2;-0.5785094;2.18944;-0.6199592;2.219625;0.779423;1.05;0.6211202;1.233449;
637953003055924113;746.069;31;2;2;0.6;1.8;900;2.22222222222222;0.3078185;0.6542768;0.238125;0.890187;-0.5785094;2.18944;-0.6199592;2.219625;
637953003102904557;750.7671;31;2;4.5;0.1;2.2;2499;1.80072028811525;-0.3762217;0.4663379;-0.3724584;0.4703604;0;2.6;-0.01637647;2.559881;
637953003114897222;751.9662;31;2;4.5;0.1;2.2;1199;3.75312760633862;0.7070663;2.342649;0.6874925;2.343279;-0.3762217;0.4663379;-0.3724584;0.4703604;
637953003140882997;754.5649;31;2;4.5;0.1;2.2;2599;1.73143516737207;-0.9526277;0.9499994;-0.9514335;0.9663957;0.7070663;2.342649;0.6874925;2.343279;
637953003158987026;756.375;31;2;4.5;0.1;2.2;1810;2.48618784530387;1.083289;1.691013;1.070566;1.691724;-0.9526277;0.9499994;-0.9514335;0.9663957;
637953003170979693;757.5747;31;2;4.5;0.1;2.2;1200;3.75;-1.083289;1.691012;-1.04453;1.715043;1.083289;1.691013;1.070566;1.691724;
637953003195975251;760.0736;31;2;4.5;0.1;2.2;2499;1.80072028811525;0.9526281;0.9500003;0.9496183;0.9449766;-1.083289;1.691012;-1.04453;1.715043;
637953003215959690;762.0725;31;2;4.5;0.1;2.2;1999;2.25112556278139;-0.7070671;2.342648;-0.6992972;2.34125;0.9526281;0.9500003;0.9496183;0.9449766;
637953003232953470;763.7717;31;2;4.5;0.1;2.2;1699;2.64861683343143;0.3762226;0.4663382;0.3862951;0.4928253;-0.7070671;2.342648;-0.6992972;2.34125;
637953003757048918;816.181;31;3;1.5;1.1;2;700;2.14285714285714;-0.3420197;0.5603072;-0.225028;0.9842644;0;2.5;-0.01024801;2.281707;
637953003763040246;816.7805;31;3;1.5;1.1;2;599;2.50417362270451;0.6427875;2.266045;0.4425704;2.231457;-0.3420197;0.5603072;-0.225028;0.9842644;
637953003769041582;817.3804;31;3;1.5;1.1;2;600;2.5;-0.8660251;0.9999995;-0.6987376;1.281356;0.6427875;2.266045;0.4425704;2.231457;
637953003775042915;817.9804;31;3;1.5;1.1;2;600;2.5;0.9848077;1.673648;0.9567391;1.737009;-0.8660251;0.9999995;-0.6987376;1.281356;
637953003781034246;818.5797;31;3;1.5;1.1;2;599;2.50417362270451;-0.9848078;1.673648;-0.8550488;1.779852;0.9848077;1.673648;0.9567391;1.737009;
637953003788145831;819.2906;31;3;1.5;1.1;2;711;2.10970464135021;0.8660256;1;0.7616404;1.322762;-0.9848078;1.673648;-0.8550488;1.779852;
637953003793136939;819.7903;31;3;1.5;1.1;2;500;3;-0.6427882;2.266044;-0.559299;2.286851;0.8660256;1;0.7616404;1.322762;
637953003800138489;820.4902;31;3;1.5;1.1;2;700;2.14285714285714;0.3420205;0.5603075;0.4001972;0.7879251;-0.6427882;2.266044;-0.559299;2.286851;
637953003828124717;823.2885;31;3;3.5;0.2;2;1399;2.50178699070765;-0.3420197;0.5603072;-0.3161605;0.598515;0;2.5;-0.04035287;2.458603;
637953003842117829;824.688;31;3;3.5;0.2;2;1400;2.5;0.6427875;2.266045;0.6483389;2.22285;-0.3420197;0.5603072;-0.3161605;0.598515;
637953003855110719;825.9874;31;3;3.5;0.2;2;1299;2.69438029253272;-0.8660251;0.9999995;-0.7844917;1.020447;0.6427875;2.266045;0.6483389;2.22285;
637953003868103606;827.287;31;3;3.5;0.2;2;1300;2.69230769230769;0.9848077;1.673648;0.9178574;1.705127;-0.8660251;0.9999995;-0.7844917;1.020447;
637953003877095606;828.1863;31;3;3.5;0.2;2;899;3.89321468298109;-0.9848078;1.673648;-0.992666;1.657587;0.9848077;1.673648;0.9178574;1.705127;
637953003894099388;829.8859;31;3;3.5;0.2;2;1700;2.05882352941176;0.8660256;1;0.8861312;1.049289;-0.9848078;1.673648;-0.992666;1.657587;
637953003903090641;830.7852;31;3;3.5;0.2;2;899;3.89321468298109;-0.6427882;2.266044;-0.6200529;2.286648;0.8660256;1;0.8861312;1.049289;
637953003923079700;832.7842;31;3;3.5;0.2;2;1999;1.75087543771886;0.3420205;0.5603075;0.3404317;0.5433357;-0.6427882;2.266044;-0.6200529;2.286648;
637953003940083787;834.4848;31;3;2.5;0.3;1.4;1101;2.27066303360581;-0.2394138;0.8422151;-0.2847514;0.9586216;0;2.2;0.01784252;2.11181;
637953003948175583;835.2944;31;3;2.5;0.3;1.4;810;3.08641975308642;0.4499513;2.036231;0.4908348;2.01151;-0.2394138;0.8422151;-0.2847514;0.9586216;
637953003955177138;835.994;31;3;2.5;0.3;1.4;700;3.57142857142857;-0.6062176;1.15;-0.5530568;1.219488;0.4499513;2.036231;0.4908348;2.01151;
637953003966169581;837.0936;31;3;2.5;0.3;1.4;1100;2.27272727272727;0.6893654;1.621554;0.6851781;1.661685;-0.6062176;1.15;-0.5530568;1.219488;
637953003974171353;837.8934;31;3;2.5;0.3;1.4;800;3.125;-0.6893655;1.621553;-0.6577805;1.710863;0.6893654;1.621554;0.6851781;1.661685;
637953003992165362;839.6926;31;3;2.5;0.3;1.4;1799;1.38966092273485;0.6062179;1.15;0.4888436;1.211068;-0.6893655;1.621553;-0.6577805;1.710863;
637953004002157590;840.6918;31;3;2.5;0.3;1.4;999;2.5025025025025;-0.4499517;2.036231;-0.3702678;2.023027;0.6062179;1.15;0.4888436;1.211068;
637953004010149359;841.4915;31;3;2.5;0.3;1.4;800;3.125;0.2394144;0.8422153;0.2008913;0.9046021;-0.4499517;2.036231;-0.3702678;2.023027;
637953004047127582;845.1896;31;3;4.5;0.1;2.2;1699;2.64861683343143;-0.3762217;0.4663379;-0.3710177;0.4926645;0;2.6;-0.02717803;2.605266;
637953004063131140;846.7892;31;3;4.5;0.1;2.2;1600;2.8125;0.7070663;2.342649;0.703499;2.331202;-0.3762217;0.4663379;-0.3710177;0.4926645;
637953004083115583;848.7878;31;3;4.5;0.1;2.2;1999;2.25112556278139;-0.9526277;0.9499994;-0.9274503;0.9777165;0.7070663;2.342649;0.703499;2.331202;
637953004103220046;850.7982;31;3;4.5;0.1;2.2;2010;2.23880597014925;1.083289;1.691013;1.119218;1.681058;-0.9526277;0.9499994;-0.9274503;0.9777165;
637953004141198497;854.5966;31;3;4.5;0.1;2.2;3799;1.18452224269545;-1.083289;1.691012;-1.067897;1.701598;1.083289;1.691013;1.119218;1.681058;
637953004155201611;855.9962;31;3;4.5;0.1;2.2;1400;3.21428571428571;0.9526281;0.9500003;0.9308609;0.9420006;-1.083289;1.691012;-1.067897;1.701598;
637953004167184273;857.1953;31;3;4.5;0.1;2.2;1199;3.75312760633862;-0.7070671;2.342648;-0.7110921;2.383455;0.9526281;0.9500003;0.9308609;0.9420006;
637953004186178497;859.0944;31;3;4.5;0.1;2.2;1899;2.3696682464455;0.3762226;0.4663382;0.3389984;0.4959385;-0.7070671;2.342648;-0.7110921;2.383455;
637953004200181614;860.4943;31;3;2;0.6;1.8;600;3.33333333333333;-0.3078177;0.6542765;-0.2167728;0.8733073;0;2.4;-0.01241361;2.386483;
637953004208173388;861.2934;31;3;2;0.6;1.8;799;2.50312891113892;0.5785087;2.18944;0.3839791;2.175794;-0.3078177;0.6542765;-0.2167728;0.8733073;
637953004218169748;862.2928;31;3;2;0.6;1.8;999;2.002002002002;-0.7794226;1.05;-0.7464027;1.252297;0.5785087;2.18944;0.3839791;2.175794;
637953004234160900;863.8922;31;3;2;0.6;1.8;1599;1.25078173858662;0.8863269;1.656283;0.7682432;1.738896;-0.7794226;1.05;-0.7464027;1.252297;
637953004246153561;865.0916;31;3;2;0.6;1.8;1199;1.66805671392827;-0.8863271;1.656283;-0.7090489;1.724465;0.8863269;1.656283;0.7682432;1.738896;
637953004254145344;865.8912;31;3;2;0.6;1.8;800;2.5;0.779423;1.05;0.5973763;1.228525;-0.8863271;1.656283;-0.7090489;1.724465;
637953004262195789;866.696;31;3;2;0.6;1.8;805;2.48447204968944;-0.5785094;2.18944;-0.4717266;2.117888;0.779423;1.05;0.5973763;1.228525;
637953004277249322;868.2011;31;3;2;0.6;1.8;1505;1.32890365448505;0.3078185;0.6542768;0.3229674;0.8657441;-0.5785094;2.18944;-0.4717266;2.117888;
637953004329225304;873.399;31;3;4;0.1;1.4;3398;1.17716303708064;-0.2394138;0.8422151;-0.2359259;0.8433251;0;2.2;0.009422517;2.217901;
637953004344218637;874.8982;31;3;4;0.1;1.4;1499;2.66844563042028;0.4499513;2.036231;0.4230635;2.002268;-0.2394138;0.8422151;-0.2359259;0.8433251;
637953004360212194;876.4975;31;3;4;0.1;1.4;1599;2.50156347717323;-0.6062176;1.15;-0.5925314;1.151774;0.4499513;2.036231;0.4230635;2.002268;
637953004394189745;879.8959;31;3;4;0.1;1.4;3398;1.17716303708064;0.6893654;1.621554;0.6837653;1.628311;-0.6062176;1.15;-0.5925314;1.151774;
637953004412303774;881.7064;31;3;4;0.1;1.4;1811;2.20872446162341;-0.6893655;1.621553;-0.6997824;1.657424;0.6893654;1.621554;0.6837653;1.628311;
637953004430287770;883.5056;31;3;4;0.1;1.4;1799;2.22345747637576;0.6062179;1.15;0.6242245;1.164045;-0.6893655;1.621553;-0.6997824;1.657424;
637953004441510266;884.6344;31;3;4;0.1;1.4;1129;3.54295837023915;-0.4499517;2.036231;-0.4076883;2.020961;0.6062179;1.15;0.6242245;1.164045;
637953004454273102;885.9042;31;3;4;0.1;1.4;1270;3.1496062992126;0.2394144;0.8422153;0.2646974;0.8342148;-0.4499517;2.036231;-0.4076883;2.020961;
637953004484379797;888.9141;31;3;3;0.2;1.4;2110;1.4218009478673;-0.2394138;0.8422151;-0.2503638;0.8955988;0;2.2;0.02576777;2.148364;
637953004506364685;891.113;31;3;3;0.2;1.4;2199;1.36425648021828;0.4499513;2.036231;0.4602423;2.053096;-0.2394138;0.8422151;-0.2503638;0.8955988;
637953004525358908;893.0121;31;3;3;0.2;1.4;1899;1.57977883096367;-0.6062176;1.15;-0.5874634;1.130061;0.4499513;2.036231;0.4602423;2.053096;
637953004547343795;895.2111;31;3;3;0.2;1.4;2199;1.36425648021828;0.6893654;1.621554;0.6567304;1.666746;-0.6062176;1.15;-0.5874634;1.130061;
637953004559346463;896.4107;31;3;3;0.2;1.4;1200;2.5;-0.6893655;1.621553;-0.7085192;1.632786;0.6893654;1.621554;0.6567304;1.666746;
637953004572443067;897.7209;31;3;3;0.2;1.4;1310;2.29007633587786;0.6062179;1.15;0.5712487;1.169901;-0.6893655;1.621553;-0.7085192;1.632786;
637953004582445293;898.7206;31;3;3;0.2;1.4;1000;3;-0.4499517;2.036231;-0.4619271;2.040338;0.6062179;1.15;0.5712487;1.169901;
637953004594437961;899.9202;31;3;3;0.2;1.4;1200;2.5;0.2394144;0.8422153;0.1943768;0.8716769;-0.4499517;2.036231;-0.4619271;2.040338;
637953005700817213;1010.558;31;4;3;0.2;1.4;1100;2.72727272727273;-0.2394138;0.8422151;-0.2416926;0.8419373;0;2.2;0.04153204;2.154301;
637953005708909010;1011.368;31;4;3;0.2;1.4;810;3.7037037037037;0.4499513;2.036231;0.4683722;2.085475;-0.2394138;0.8422151;-0.2416926;0.8419373;
637953005716910782;1012.168;31;4;3;0.2;1.4;800;3.75;-0.6062176;1.15;-0.5944532;1.167044;0.4499513;2.036231;0.4683722;2.085475;
637953005724912569;1012.968;31;4;3;0.2;1.4;800;3.75;0.6893654;1.621554;0.7380454;1.664032;-0.6062176;1.15;-0.5944532;1.167044;
637953005732904345;1013.767;31;4;3;0.2;1.4;800;3.75;-0.6893655;1.621553;-0.680926;1.685171;0.6893654;1.621554;0.7380454;1.664032;
637953005741896342;1014.667;31;4;3;0.2;1.4;899;3.33704115684093;0.6062179;1.15;0.6176206;1.189011;-0.6893655;1.621553;-0.680926;1.685171;
637953005750898347;1015.566;31;4;3;0.2;1.4;900;3.33333333333333;-0.4499517;2.036231;-0.4426594;2.045225;0.6062179;1.15;0.6176206;1.189011;
637953005758890120;1016.366;31;4;3;0.2;1.4;800;3.75;0.2394144;0.8422153;0.2367103;0.9196856;-0.4499517;2.036231;-0.4426594;2.045225;
637953005771883016;1017.665;31;4;1.5;1.1;2;599;2.50417362270451;-0.3420197;0.5603072;-0.2567656;0.9197918;0;2.5;0.02170205;2.238659;
637953005777884344;1018.265;31;4;1.5;1.1;2;600;2.5;0.6427875;2.266045;0.4166359;2.088415;-0.3420197;0.5603072;-0.2567656;0.9197918;
637953005783875679;1018.865;31;4;1.5;1.1;2;599;2.50417362270451;-0.8660251;0.9999995;-0.843739;1.370126;0.6427875;2.266045;0.4166359;2.088415;
637953005798879018;1020.364;31;4;1.5;1.1;2;1500;1;0.9848077;1.673648;0.7998545;1.785806;-0.8660251;0.9999995;-0.843739;1.370126;
637953005807871012;1021.264;31;4;1.5;1.1;2;900;1.66666666666667;-0.9848078;1.673648;-0.6737208;1.795286;0.9848077;1.673648;0.7998545;1.785806;
637953005815862790;1022.063;31;4;1.5;1.1;2;799;1.87734668335419;0.8660256;1;0.638702;1.328384;-0.9848078;1.673648;-0.6737208;1.795286;
637953005832971049;1023.774;31;4;1.5;1.1;2;1710;0.87719298245614;-0.6427882;2.266044;-0.4786914;2.251995;0.8660256;1;0.638702;1.328384;
637953005841968527;1024.674;31;4;1.5;1.1;2;900;1.66666666666667;0.3420205;0.5603075;0.1221104;0.8687925;-0.6427882;2.266044;-0.4786914;2.251995;
637953005881957418;1028.672;31;4;4;0.1;1.4;1600;2.5;-0.2394138;0.8422151;-0.2429963;0.88779;0;2.2;-0.003814012;2.186019;
637953005917043003;1032.181;31;4;4;0.1;1.4;3509;1.13992590481619;0.4499513;2.036231;0.4090227;2.040451;-0.2394138;0.8422151;-0.2429963;0.88779;
637953005930035651;1033.481;31;4;4;0.1;1.4;1299;3.07929176289453;-0.6062176;1.15;-0.609266;1.163807;0.4499513;2.036231;0.4090227;2.040451;
637953005947027502;1035.18;31;4;4;0.1;1.4;1699;2.35432607416127;0.6893654;1.621554;0.6522099;1.631078;-0.6062176;1.15;-0.609266;1.163807;
637953005969012545;1037.379;31;4;4;0.1;1.4;2199;1.81900864029104;-0.6893655;1.621553;-0.6756088;1.630668;0.6893654;1.621554;0.6522099;1.631078;
637953005984015905;1038.878;31;4;4;0.1;1.4;1500;2.66666666666667;0.6062179;1.15;0.5868767;1.191529;-0.6893655;1.621553;-0.6756088;1.630668;
637953006007991238;1041.276;31;4;4;0.1;1.4;2398;1.66805671392827;-0.4499517;2.036231;-0.4430368;2.039215;0.6062179;1.15;0.5868767;1.191529;
637953006034097041;1043.887;31;4;4;0.1;1.4;2610;1.53256704980843;0.2394144;0.8422153;0.248623;0.8301307;-0.4499517;2.036231;-0.4430368;2.039215;
637953006053101265;1045.787;31;4;2.5;0.3;1.4;901;2.77469478357381;-0.2394138;0.8422151;-0.2214832;0.9442197;0;2.2;0.001507785;2.157625;
637953006062083261;1046.685;31;4;2.5;0.3;1.4;898;2.78396436525612;0.4499513;2.036231;0.3981491;2.088256;-0.2394138;0.8422151;-0.2214832;0.9442197;
637953006074085931;1047.885;31;4;2.5;0.3;1.4;1200;2.08333333333333;-0.6062176;1.15;-0.540358;1.131371;0.4499513;2.036231;0.3981491;2.088256;
637953006088069039;1049.284;31;4;2.5;0.3;1.4;1399;1.78699070764832;0.6893654;1.621554;0.6251062;1.676633;-0.6062176;1.15;-0.540358;1.131371;
637953006106063039;1051.083;31;4;2.5;0.3;1.4;1799;1.38966092273485;-0.6893655;1.621553;-0.6424163;1.624101;0.6893654;1.621554;0.6251062;1.676633;
637953006115065041;1051.984;31;4;2.5;0.3;1.4;901;2.77469478357381;0.6062179;1.15;0.5829606;1.276665;-0.6893655;1.621553;-0.6424163;1.624101;
637953006125057259;1052.983;31;4;2.5;0.3;1.4;999;2.5025025025025;-0.4499517;2.036231;-0.3895807;1.95835;0.6062179;1.15;0.5829606;1.276665;
637953006134049262;1053.882;31;4;2.5;0.3;1.4;899;2.78086763070078;0.2394144;0.8422153;0.2595027;0.9466397;-0.4499517;2.036231;-0.3895807;1.95835;
637953006183140176;1058.791;31;4;4.5;0.1;2.2;3110;1.44694533762058;-0.3762217;0.4663379;-0.3710963;0.493336;0;2.6;0.0237235;2.588511;
637953006213346899;1061.819;31;4;4.5;0.1;2.2;3028;1.48612945838838;0.7070663;2.342649;0.6656187;2.36981;-0.3762217;0.4663379;-0.3710963;0.493336;
637953006237122180;1064.189;31;4;4.5;0.1;2.2;2370;1.89873417721519;-0.9526277;0.9499994;-0.9290965;0.9553453;0.7070663;2.342649;0.6656187;2.36981;
637953006258106845;1066.287;31;4;4.5;0.1;2.2;2099;2.14387803716055;1.083289;1.691013;1.129789;1.701162;-0.9526277;0.9499994;-0.9290965;0.9553453;
637953006272092915;1067.687;31;4;4.5;0.1;2.2;1399;3.21658327376698;-1.083289;1.691012;-1.059884;1.734961;1.083289;1.691013;1.129789;1.701162;
637953006287086247;1069.186;31;4;4.5;0.1;2.2;1499;3.00200133422282;0.9526281;0.9500003;0.984629;0.9634943;-1.083289;1.691012;-1.059884;1.734961;
637953006307080693;1071.185;31;4;4.5;0.1;2.2;1999;2.25112556278139;-0.7070671;2.342648;-0.6662299;2.360682;0.9526281;0.9500003;0.984629;0.9634943;
637953006320075152;1072.485;31;4;4.5;0.1;2.2;1299;3.46420323325635;0.3762226;0.4663382;0.3858388;0.474552;-0.7070671;2.342648;-0.6662299;2.360682;
637953006334185148;1073.895;31;4;2;0.6;1.8;611;3.27332242225859;-0.3078177;0.6542765;-0.2806641;0.8449343;0;2.4;0.0103998;2.404697;
637953006341176700;1074.595;31;4;2;0.6;1.8;700;2.85714285714286;0.5785087;2.18944;0.4264743;2.07423;-0.3078177;0.6542765;-0.2806641;0.8449343;
637953006348178261;1075.295;31;4;2;0.6;1.8;700;2.85714285714286;-0.7794226;1.05;-0.9302831;1.245873;0.5785087;2.18944;0.4264743;2.07423;
637953006356170038;1076.094;31;4;2;0.6;1.8;799;2.50312891113892;0.8863269;1.656283;0.9466781;1.625791;-0.7794226;1.05;-0.9302831;1.245873;
637953006364171815;1076.894;31;4;2;0.6;1.8;799;2.50312891113892;-0.8863271;1.656283;-0.6191127;1.661769;0.8863269;1.656283;0.9466781;1.625791;
637953006372163591;1077.693;31;4;2;0.6;1.8;800;2.5;0.779423;1.05;0.6263508;1.167922;-0.8863271;1.656283;-0.6191127;1.661769;
637953006378154925;1078.293;31;4;2;0.6;1.8;600;3.33333333333333;-0.5785094;2.18944;-0.3721581;2.327482;0.779423;1.05;0.6263508;1.167922;
637953006386156714;1079.092;31;4;2;0.6;1.8;800;2.5;0.3078185;0.6542768;0.2348046;0.897441;-0.5785094;2.18944;-0.3721581;2.327482;
637953006420134256;1082.491;31;4;3.5;0.2;2;1499;2.33488992661775;-0.3420197;0.5603072;-0.3243362;0.6007921;0;2.5;-0.004692845;2.493224;
637953006431136703;1083.59;31;4;3.5;0.2;2;1100;3.18181818181818;0.6427875;2.266045;0.624271;2.317195;-0.3420197;0.5603072;-0.3243362;0.6007921;
637953006453121596;1085.79;31;4;3.5;0.2;2;2199;1.59163256025466;-0.8660251;0.9999995;-0.811746;1.026343;0.6427875;2.266045;0.624271;2.317195;
637953006464124039;1086.889;31;4;3.5;0.2;2;1100;3.18181818181818;0.9848077;1.673648;0.9528071;1.653436;-0.8660251;0.9999995;-0.811746;1.026343;
637953006473116035;1087.789;31;4;3.5;0.2;2;900;3.88888888888889;-0.9848078;1.673648;-0.977502;1.672354;0.9848077;1.673648;0.9528071;1.653436;
637953006482108038;1088.688;31;4;3.5;0.2;2;899;3.89321468298109;0.8660256;1;0.8509393;1.044487;-0.9848078;1.673648;-0.977502;1.672354;
637953006491220059;1089.599;31;4;3.5;0.2;2;911;3.84193194291987;-0.6427882;2.266044;-0.6030567;2.292919;0.8660256;1;0.8509393;1.044487;
637953006512204727;1091.698;31;4;3.5;0.2;2;2099;1.66746069556932;0.3420205;0.5603075;0.3229249;0.5969203;-0.6427882;2.266044;-0.6030567;2.292919;
637953007095400534;1150.016;31;5;2.5;0.3;1.4;1211;2.06440957886045;-0.2394138;0.8422151;-0.2400995;0.9374064;0;2.2;0.02239487;2.096327;
637953007102392091;1150.715;31;5;2.5;0.3;1.4;699;3.57653791130186;0.4499513;2.036231;0.4462115;2.048491;-0.2394138;0.8422151;-0.2400995;0.9374064;
637953007110393871;1151.515;31;5;2.5;0.3;1.4;800;3.125;-0.6062176;1.15;-0.4604345;1.159535;0.4499513;2.036231;0.4462115;2.048491;
637953007117385423;1152.215;31;5;2.5;0.3;1.4;700;3.57142857142857;0.6893654;1.621554;0.6993352;1.657007;-0.6062176;1.15;-0.4604345;1.159535;
637953007128387871;1153.314;31;5;2.5;0.3;1.4;1099;2.27479526842584;-0.6893655;1.621553;-0.5478895;1.623398;0.6893654;1.621554;0.6993352;1.657007;
637953007137379869;1154.214;31;5;2.5;0.3;1.4;900;2.77777777777778;0.6062179;1.15;0.6285399;1.076263;-0.6893655;1.621553;-0.5478895;1.623398;
637953007146371868;1155.113;31;5;2.5;0.3;1.4;899;2.78086763070078;-0.4499517;2.036231;-0.3568923;2.076697;0.6062179;1.15;0.6285399;1.076263;
637953007155363868;1156.013;31;5;2.5;0.3;1.4;900;2.77777777777778;0.2394144;0.8422153;0.2198275;0.963264;-0.4499517;2.036231;-0.3568923;2.076697;
637953007166366317;1157.112;31;5;1.5;1.1;2;500;3;-0.3420197;0.5603072;-0.2947868;0.7595736;0;2.5;-0.1347881;2.261549;
637953007179359201;1158.411;31;5;1.5;1.1;2;1299;1.15473441108545;0.6427875;2.266045;0.3565383;2.122518;-0.3420197;0.5603072;-0.2947868;0.7595736;
637953007186360760;1159.112;31;5;1.5;1.1;2;700;2.14285714285714;-0.8660251;0.9999995;-0.6141259;1.345956;0.6427875;2.266045;0.3565383;2.122518;
637953007193352313;1159.811;31;5;1.5;1.1;2;699;2.14592274678112;0.9848077;1.673648;0.7660032;1.824559;-0.8660251;0.9999995;-0.6141259;1.345956;
637953007200353869;1160.511;31;5;1.5;1.1;2;700;2.14285714285714;-0.9848078;1.673648;-0.849361;1.840072;0.9848077;1.673648;0.7660032;1.824559;
637953007208345652;1161.311;31;5;1.5;1.1;2;799;1.87734668335419;0.8660256;1;0.6527629;1.328579;-0.9848078;1.673648;-0.849361;1.840072;
637953007215337201;1162.01;31;5;1.5;1.1;2;699;2.14592274678112;-0.6427882;2.266044;-0.6588144;2.219631;0.8660256;1;0.6527629;1.328579;
637953007222338757;1162.709;31;5;1.5;1.1;2;700;2.14285714285714;0.3420205;0.5603075;0.2334691;0.939154;-0.6427882;2.266044;-0.6588144;2.219631;
637953007238332313;1164.309;31;5;3;0.2;1.4;800;3.75;-0.2394138;0.8422151;-0.2332002;0.907086;0;2.2;-0.009893373;2.184716;
637953007246324090;1165.109;31;5;3;0.2;1.4;800;3.75;0.4499513;2.036231;0.457351;1.965317;-0.2394138;0.8422151;-0.2332002;0.907086;
637953007255326092;1166.009;31;5;3;0.2;1.4;900;3.33333333333333;-0.6062176;1.15;-0.5625455;1.236842;0.4499513;2.036231;0.457351;1.965317;
637953007266813212;1167.165;31;5;3;0.2;1.4;1156;2.59515570934256;0.6893654;1.621554;0.5918259;1.642423;-0.6062176;1.15;-0.5625455;1.236842;
637953007275425130;1168.018;31;5;3;0.2;1.4;854;3.51288056206089;-0.6893655;1.621553;-0.6086925;1.657982;0.6893654;1.621554;0.5918259;1.642423;
637953007285407347;1169.018;31;5;3;0.2;1.4;1000;3;0.6062179;1.15;0.5554786;1.222877;-0.6893655;1.621553;-0.6086925;1.657982;
637953007293509150;1169.828;31;5;3;0.2;1.4;810;3.7037037037037;-0.4499517;2.036231;-0.3750442;2.065276;0.6062179;1.15;0.5554786;1.222877;
637953007303511377;1170.828;31;5;3;0.2;1.4;1000;3;0.2394144;0.8422153;0.2068363;0.8956491;-0.4499517;2.036231;-0.3750442;2.065276;
637953007327501680;1173.227;31;5;2;0.6;1.8;1699;1.17716303708064;-0.3078177;0.6542765;-0.2279637;0.770993;0;2.4;0.01706005;2.294194;
637953007335492118;1174.026;31;5;2;0.6;1.8;799;2.50312891113892;0.5785087;2.18944;0.4796811;2.143551;-0.3078177;0.6542765;-0.2279637;0.770993;
637953007341491645;1174.626;31;5;2;0.6;1.8;600;3.33333333333333;-0.7794226;1.05;-0.7196853;1.099078;0.5785087;2.18944;0.4796811;2.143551;
637953007347483157;1175.226;31;5;2;0.6;1.8;599;3.33889816360601;0.8863269;1.656283;0.8416495;1.632792;-0.7794226;1.05;-0.7196853;1.099078;
637953007368593446;1177.336;31;5;2;0.6;1.8;2110;0.947867298578199;-0.8863271;1.656283;-0.7781574;1.663122;0.8863269;1.656283;0.8416495;1.632792;
637953007376585224;1178.136;31;5;2;0.6;1.8;800;2.5;0.779423;1.05;0.649695;1.198357;-0.8863271;1.656283;-0.7781574;1.663122;
637953007383586777;1178.836;31;5;2;0.6;1.8;700;2.85714285714286;-0.5785094;2.18944;-0.6932898;2.170718;0.779423;1.05;0.649695;1.198357;
637953007390578335;1179.535;31;5;2;0.6;1.8;700;2.85714285714286;0.3078185;0.6542768;0.2981729;0.8948392;-0.5785094;2.18944;-0.6932898;2.170718;
637953007410572778;1181.534;31;5;4.5;0.1;2.2;1100;4.09090909090909;-0.3762217;0.4663379;-0.3794894;0.5080497;0;2.6;0.006563012;2.580491;
637953007420564998;1182.533;31;5;4.5;0.1;2.2;999;4.5045045045045;0.7070663;2.342649;0.6906324;2.349632;-0.3762217;0.4663379;-0.3794894;0.5080497;
637953007432557666;1183.733;31;5;4.5;0.1;2.2;1200;3.75;-0.9526277;0.9499994;-0.9139045;0.9668114;0.7070663;2.342649;0.6906324;2.349632;
637953007458553447;1186.332;31;5;4.5;0.1;2.2;2599;1.73143516737207;1.083289;1.691013;1.090912;1.703963;-0.9526277;0.9499994;-0.9139045;0.9668114;
637953007470546113;1187.531;31;5;4.5;0.1;2.2;1199;3.75312760633862;-1.083289;1.691012;-1.070982;1.692517;1.083289;1.691013;1.090912;1.703963;
637953007489530332;1189.431;31;5;4.5;0.1;2.2;1899;2.3696682464455;0.9526281;0.9500003;0.9488248;0.9563144;-1.083289;1.691012;-1.070982;1.692517;
637953007499532559;1190.43;31;5;4.5;0.1;2.2;999;4.5045045045045;-0.7070671;2.342648;-0.7060656;2.332872;0.9526281;0.9500003;0.9488248;0.9563144;
637953007513635694;1191.84;31;5;4.5;0.1;2.2;1410;3.19148936170213;0.3762226;0.4663382;0.3365873;0.4951071;-0.7070671;2.342648;-0.7060656;2.332872;
637953007552614359;1195.739;31;5;4;0.1;1.4;1399;2.85918513223731;-0.2394138;0.8422151;-0.2131586;0.8585865;0;2.2;-0.02560663;2.20675;
637953007564607025;1196.938;31;5;4;0.1;1.4;1199;3.33611342785655;0.4499513;2.036231;0.4366786;2.058036;-0.2394138;0.8422151;-0.2131586;0.8585865;
637953007585601693;1199.037;31;5;4;0.1;1.4;2099;1.90566936636494;-0.6062176;1.15;-0.6235397;1.16888;0.4499513;2.036231;0.4366786;2.058036;
637953007596704162;1200.148;31;5;4;0.1;1.4;1111;3.6003600360036;0.6893654;1.621554;0.6580373;1.622451;-0.6062176;1.15;-0.6235397;1.16888;
637953007609697051;1201.447;31;5;4;0.1;1.4;1299;3.07929176289453;-0.6893655;1.621553;-0.6684057;1.632163;0.6893654;1.621554;0.6580373;1.622451;
637953007624690386;1202.947;31;5;4;0.1;1.4;1499;2.66844563042028;0.6062179;1.15;0.601768;1.17464;-0.6893655;1.621553;-0.6684057;1.632163;
637953007639683719;1204.446;31;5;4;0.1;1.4;1499;2.66844563042028;-0.4499517;2.036231;-0.4442052;2.036187;0.6062179;1.15;0.601768;1.17464;
637953007651678689;1205.645;31;5;4;0.1;1.4;1200;3.33333333333333;0.2394144;0.8422153;0.2085718;0.8604321;-0.4499517;2.036231;-0.4442052;2.036187;
637953007672673358;1207.745;31;5;3.5;0.2;2;1000;3.5;-0.3420197;0.5603072;-0.3653411;0.6528913;0;2.5;0.02863372;2.515845;
637953007679664911;1208.444;31;5;3.5;0.2;2;700;5;0.6427875;2.266045;0.6568063;2.229939;-0.3420197;0.5603072;-0.3653411;0.6528913;
637953007688666914;1209.344;31;5;3.5;0.2;2;900;3.88888888888889;-0.8660251;0.9999995;-0.8309213;1.008009;0.6427875;2.266045;0.6568063;2.229939;
637953007696662798;1210.143;31;5;3.5;0.2;2;800;4.375;0.9848077;1.673648;0.9563972;1.708622;-0.8660251;0.9999995;-0.8309213;1.008009;
637953007706653487;1211.143;31;5;3.5;0.2;2;1000;3.5;-0.9848078;1.673648;-0.9340572;1.706174;0.9848077;1.673648;0.9563972;1.708622;
637953007716647868;1212.142;31;5;3.5;0.2;2;999;3.5035035035035;0.8660256;1;0.8620613;1.094173;-0.9848078;1.673648;-0.9340572;1.706174;
637953007727760337;1213.253;31;5;3.5;0.2;2;1111;3.15031503150315;-0.6427882;2.266044;-0.6641441;2.282138;0.8660256;1;0.8620613;1.094173;
637953007750745448;1215.552;31;5;3.5;0.2;2;2299;1.52240104393214;0.3420205;0.5603075;0.302092;0.5793003;-0.6427882;2.266044;-0.6641441;2.282138;
637953008278837519;1268.361;31;6;4;0.1;1.4;1799;2.22345747637576;-0.2394138;0.8422151;-0.2605414;0.811854;0;2.2;0.0155683;2.168625;
637953008289829962;1269.46;31;6;4;0.1;1.4;1099;3.63967242948135;0.4499513;2.036231;0.4837887;2.005754;-0.2394138;0.8422151;-0.2605414;0.811854;
637953008308824187;1271.359;31;6;4;0.1;1.4;1899;2.10637177461822;-0.6062176;1.15;-0.6297053;1.162435;0.4499513;2.036231;0.4837887;2.005754;
637953008320806846;1272.559;31;6;4;0.1;1.4;1199;3.33611342785655;0.6893654;1.621554;0.6416106;1.606798;-0.6062176;1.15;-0.6297053;1.162435;
637953008331809295;1273.658;31;6;4;0.1;1.4;1100;3.63636363636364;-0.6893655;1.621553;-0.6612661;1.660847;0.6893654;1.621554;0.6416106;1.606798;
637953008349803296;1275.458;31;6;4;0.1;1.4;1799;2.22345747637576;0.6062179;1.15;0.5756419;1.160934;-0.6893655;1.621553;-0.6612661;1.660847;
637953008363906432;1276.868;31;6;4;0.1;1.4;1410;2.83687943262411;-0.4499517;2.036231;-0.4076889;2.044557;0.6062179;1.15;0.5756419;1.160934;
637953008375899097;1278.067;31;6;4;0.1;1.4;1199;3.33611342785655;0.2394144;0.8422153;0.2265372;0.8761048;-0.4499517;2.036231;-0.4076889;2.044557;
637953008400894655;1280.566;31;6;3;0.2;1.4;1100;2.72727272727273;-0.2394138;0.8422151;-0.2033296;0.8999588;0;2.2;0.02056598;2.184033;
637953008419878876;1282.465;31;6;3;0.2;1.4;1899;1.57977883096367;0.4499513;2.036231;0.3871369;2.035848;-0.2394138;0.8422151;-0.2033296;0.8999588;
637953008434872211;1283.965;31;6;3;0.2;1.4;1499;2.00133422281521;-0.6062176;1.15;-0.5631851;1.184668;0.4499513;2.036231;0.3871369;2.035848;
637953008443864208;1284.864;31;6;3;0.2;1.4;900;3.33333333333333;0.6893654;1.621554;0.6324375;1.67093;-0.6062176;1.15;-0.5631851;1.184668;
637953008466859324;1287.163;31;6;3;0.2;1.4;2299;1.30491518051327;-0.6893655;1.621553;-0.6922348;1.65313;0.6893654;1.621554;0.6324375;1.67093;
637953008477851765;1288.263;31;6;3;0.2;1.4;1100;2.72727272727273;0.6062179;1.15;0.5866303;1.229678;-0.6893655;1.621553;-0.6922348;1.65313;
637953008486853768;1289.163;31;6;3;0.2;1.4;900;3.33333333333333;-0.4499517;2.036231;-0.4587843;2.024106;0.6062179;1.15;0.5866303;1.229678;
637953008500843481;1290.561;31;6;3;0.2;1.4;1399;2.14438884917798;0.2394144;0.8422153;0.2634479;0.8397145;-0.4499517;2.036231;-0.4587843;2.024106;
637953008533940069;1293.871;31;6;4.5;0.1;2.2;1599;2.81425891181989;-0.3762217;0.4663379;-0.3879587;0.4567909;0;2.6;0.01398075;2.570071;
637953008547923177;1295.27;31;6;4.5;0.1;2.2;1399;3.21658327376698;0.7070663;2.342649;0.6946997;2.34545;-0.3762217;0.4663379;-0.3879587;0.4567909;
637953008571918511;1297.669;31;6;4.5;0.1;2.2;2399;1.87578157565652;-0.9526277;0.9499994;-0.936848;0.9086134;0.7070663;2.342649;0.6946997;2.34545;
637953008586911845;1299.169;31;6;4.5;0.1;2.2;1499;3.00200133422282;1.083289;1.691013;1.073788;1.702126;-0.9526277;0.9499994;-0.936848;0.9086134;
637953008605906068;1301.068;31;6;4.5;0.1;2.2;1899;2.3696682464455;-1.083289;1.691012;-1.077474;1.653318;1.083289;1.691013;1.073788;1.702126;
637953008624010094;1302.878;31;6;4.5;0.1;2.2;1810;2.48618784530387;0.9526281;0.9500003;0.9603778;0.9506712;-1.083289;1.691012;-1.077474;1.653318;
637953008640993869;1304.577;31;6;4.5;0.1;2.2;1699;2.64861683343143;-0.7070671;2.342648;-0.7010047;2.349194;0.9526281;0.9500003;0.9603778;0.9506712;
637953008654986981;1305.976;31;6;4.5;0.1;2.2;1399;3.21658327376698;0.3762226;0.4663382;0.3538719;0.4391567;-0.7070671;2.342648;-0.7010047;2.349194;
637953008676981873;1308.176;31;6;1.5;1.1;2;1400;1.07142857142857;-0.3420197;0.5603072;-0.1949728;0.8673791;0;2.5;-0.003011497;2.34033;
637953008683983430;1308.876;31;6;1.5;1.1;2;700;2.14285714285714;0.6427875;2.266045;0.2296238;1.991366;-0.3420197;0.5603072;-0.1949728;0.8673791;
637953008695976094;1310.075;31;6;1.5;1.1;2;1199;1.25104253544621;-0.8660251;0.9999995;-0.6392837;1.355705;0.6427875;2.266045;0.2296238;1.991366;
637953008705968315;1311.074;31;6;1.5;1.1;2;999;1.5015015015015;0.9848077;1.673648;0.5571805;1.559989;-0.8660251;0.9999995;-0.6392837;1.355705;
637953008714960316;1311.974;31;6;1.5;1.1;2;900;1.66666666666667;-0.9848078;1.673648;-0.7319556;1.623484;0.9848077;1.673648;0.5571805;1.559989;
637953008722962094;1312.774;31;6;1.5;1.1;2;800;1.875;0.8660256;1;0.6934766;1.277389;-0.9848078;1.673648;-0.7319556;1.623484;
637953008730953870;1313.573;31;6;1.5;1.1;2;800;1.875;-0.6427882;2.266044;-0.537823;2.16154;0.8660256;1;0.6934766;1.277389;
637953008738945651;1314.373;31;6;1.5;1.1;2;799;1.87734668335419;0.3420205;0.5603075;0.3460168;0.8846729;-0.6427882;2.266044;-0.537823;2.16154;
637953008762940981;1316.772;31;6;2.5;0.3;1.4;1000;2.5;-0.2394138;0.8422151;-0.206584;0.8077248;0;2.2;0.007075978;2.168499;
637953008773933426;1317.871;31;6;2.5;0.3;1.4;1099;2.27479526842584;0.4499513;2.036231;0.4336405;2.031175;-0.2394138;0.8422151;-0.206584;0.8077248;
637953008783045453;1318.782;31;6;2.5;0.3;1.4;911;2.74423710208562;-0.6062176;1.15;-0.6075296;1.224473;0.4499513;2.036231;0.4336405;2.031175;
637953008792037452;1319.682;31;6;2.5;0.3;1.4;899;2.78086763070078;0.6893654;1.621554;0.7231153;1.595573;-0.6062176;1.15;-0.6075296;1.224473;
637953008800039234;1320.481;31;6;2.5;0.3;1.4;800;3.125;-0.6893655;1.621553;-0.63112;1.659248;0.6893654;1.621554;0.7231153;1.595573;
637953008809257823;1321.41;31;6;2.5;0.3;1.4;929;2.69106566200215;0.6062179;1.15;0.7082893;1.256906;-0.6893655;1.621553;-0.63112;1.659248;
637953008823027261;1322.78;31;6;2.5;0.3;1.4;1370;1.82481751824818;-0.4499517;2.036231;-0.4035363;2.050645;0.6062179;1.15;0.7082893;1.256906;
637953008832028048;1323.68;31;6;2.5;0.3;1.4;900;2.77777777777778;0.2394144;0.8422153;0.2644429;0.8846078;-0.4499517;2.036231;-0.4035363;2.050645;
637953008851012246;1325.579;31;6;2;0.6;1.8;1100;1.81818181818182;-0.3078177;0.6542765;-0.2369714;0.8038375;0;2.4;0.08952668;2.474521;
637953008861004498;1326.578;31;6;2;0.6;1.8;999;2.002002002002;0.5785087;2.18944;0.5116583;2.167038;-0.3078177;0.6542765;-0.2369714;0.8038375;
637953008869004785;1327.378;31;6;2;0.6;1.8;800;2.5;-0.7794226;1.05;-0.6727091;1.26377;0.5785087;2.18944;0.5116583;2.167038;
637953008877995241;1328.278;31;6;2;0.6;1.8;900;2.22222222222222;0.8863269;1.656283;0.7359737;1.563615;-0.7794226;1.05;-0.6727091;1.26377;
637953008885997021;1329.077;31;6;2;0.6;1.8;800;2.5;-0.8863271;1.656283;-0.7777531;1.689047;0.8863269;1.656283;0.7359737;1.563615;
637953008893988802;1329.877;31;6;2;0.6;1.8;800;2.5;0.779423;1.05;0.6662246;1.198221;-0.8863271;1.656283;-0.7777531;1.689047;
637953008901060367;1330.576;31;6;2;0.6;1.8;699;2.86123032904149;-0.5785094;2.18944;-0.4334608;2.267159;0.779423;1.05;0.6662246;1.198221;
637953008908982137;1331.376;31;6;2;0.6;1.8;800;2.5;0.3078185;0.6542768;0.2523927;0.8331978;-0.5785094;2.18944;-0.4334608;2.267159;
637953008931977246;1333.675;31;6;3.5;0.2;2;1400;2.5;-0.3420197;0.5603072;-0.373576;0.5936882;0;2.5;-0.02599013;2.446624;
637953008940079046;1334.486;31;6;3.5;0.2;2;811;4.31565967940814;0.6427875;2.266045;0.6186542;2.320794;-0.3420197;0.5603072;-0.373576;0.5936882;
637953008952071716;1335.685;31;6;3.5;0.2;2;1199;2.91909924937448;-0.8660251;0.9999995;-0.8414153;1.003916;0.6427875;2.266045;0.6186542;2.320794;
637953008963074159;1336.785;31;6;3.5;0.2;2;1099;3.18471337579618;0.9848077;1.673648;1.033951;1.611972;-0.8660251;0.9999995;-0.8414153;1.003916;
637953008984058826;1338.884;31;6;3.5;0.2;2;2099;1.66746069556932;-0.9848078;1.673648;-0.9781788;1.650877;0.9848077;1.673648;1.033951;1.611972;
637953009000052380;1340.483;31;6;3.5;0.2;2;1599;2.18886804252658;0.8660256;1;0.8126088;1.020283;-0.9848078;1.673648;-0.9781788;1.650877;
637953009015045716;1341.982;31;6;3.5;0.2;2;1499;2.33488992661775;-0.6427882;2.266044;-0.6261504;2.214959;0.8660256;1;0.8126088;1.020283;
637953009028038604;1343.282;31;6;3.5;0.2;2;1300;2.69230769230769;0.3420205;0.5603075;0.3686173;0.5822948;-0.6427882;2.266044;-0.6261504;2.214959;
637953009538245532;1394.302;31;7;2.5;0.3;1.4;1599;1.56347717323327;-0.2394138;0.8422151;-0.2214576;0.9745629;0;2.2;0.001804831;2.157114;
637953009548238131;1395.302;31;7;2.5;0.3;1.4;1000;2.5;0.4499513;2.036231;0.4139512;1.96694;-0.2394138;0.8422151;-0.2214576;0.9745629;
637953009555239705;1396.002;31;7;2.5;0.3;1.4;700;3.57142857142857;-0.6062176;1.15;-0.5787643;1.124811;0.4499513;2.036231;0.4139512;1.96694;
637953009562231328;1396.701;31;7;2.5;0.3;1.4;699;3.57653791130186;0.6893654;1.621554;0.7343582;1.674682;-0.6062176;1.15;-0.5787643;1.124811;
637953009569232923;1397.401;31;7;2.5;0.3;1.4;700;3.57142857142857;-0.6893655;1.621553;-0.5693474;1.55603;0.6893654;1.621554;0.7343582;1.674682;
637953009576226654;1398.101;31;7;2.5;0.3;1.4;699;3.57653791130186;0.6062179;1.15;0.5606186;1.137386;-0.6893655;1.621553;-0.5693474;1.55603;
637953009584228432;1398.9;31;7;2.5;0.3;1.4;800;3.125;-0.4499517;2.036231;-0.4354124;2.160947;0.6062179;1.15;0.5606186;1.137386;
637953009592220207;1399.7;31;7;2.5;0.3;1.4;800;3.125;0.2394144;0.8422153;0.1808404;0.8768101;-0.4499517;2.036231;-0.4354124;2.160947;
637953009605213095;1401;31;7;3;0.2;1.4;600;5;-0.2394138;0.8422151;-0.2177867;0.8600161;0;2.2;-0.006294966;2.218603;
637953009613214874;1401.799;31;7;3;0.2;1.4;799;3.75469336670839;0.4499513;2.036231;0.4576062;2.089184;-0.2394138;0.8422151;-0.2177867;0.8600161;
637953009620216431;1402.499;31;7;3;0.2;1.4;700;4.28571428571429;-0.6062176;1.15;-0.5428966;1.227398;0.4499513;2.036231;0.4576062;2.089184;
637953009627217992;1403.199;31;7;3;0.2;1.4;700;4.28571428571429;0.6893654;1.621554;0.7119789;1.642635;-0.6062176;1.15;-0.5428966;1.227398;
637953009634209542;1403.898;31;7;3;0.2;1.4;699;4.29184549356223;-0.6893655;1.621553;-0.6698499;1.689925;0.6893654;1.621554;0.7119789;1.642635;
637953009641481164;1404.633;31;7;3;0.2;1.4;735;4.08163265306122;0.6062179;1.15;0.5666124;1.069863;-0.6893655;1.621553;-0.6698499;1.689925;
637953009650193096;1405.497;31;7;3;0.2;1.4;864;3.47222222222222;-0.4499517;2.036231;-0.497808;2.014393;0.6062179;1.15;0.5666124;1.069863;
637953009668527173;1407.337;31;7;3;0.2;1.4;1840;1.6304347826087;0.2394144;0.8422153;0.1983284;0.7610757;-0.4499517;2.036231;-0.497808;2.014393;
637953009681290012;1408.607;31;7;1.5;1.1;2;600;2.5;-0.3420197;0.5603072;-0.2808755;0.9346281;0;2.5;0.06683663;2.184908;
637953009686291121;1409.107;31;7;1.5;1.1;2;500;3;0.6427875;2.266045;0.4152076;2.044474;-0.3420197;0.5603072;-0.2808755;0.9346281;
637953009691292235;1409.607;31;7;1.5;1.1;2;500;3;-0.8660251;0.9999995;-0.5727959;1.224051;0.6427875;2.266045;0.4152076;2.044474;
637953009696283344;1410.106;31;7;1.5;1.1;2;500;3;0.9848077;1.673648;0.7868888;1.800278;-0.8660251;0.9999995;-0.5727959;1.224051;
637953009701284458;1410.606;31;7;1.5;1.1;2;500;3;-0.9848078;1.673648;-0.8729094;1.643361;0.9848077;1.673648;0.7868888;1.800278;
637953009713277121;1411.805;31;7;1.5;1.1;2;1199;1.25104253544621;0.8660256;1;0.5159658;1.137451;-0.9848078;1.673648;-0.8729094;1.643361;
637953009720278679;1412.505;31;7;1.5;1.1;2;700;2.14285714285714;-0.6427882;2.266044;-0.2855666;1.986239;0.8660256;1;0.5159658;1.137451;
637953009727270233;1413.205;31;7;1.5;1.1;2;700;2.14285714285714;0.3420205;0.5603075;0.3283602;0.9525145;-0.6427882;2.266044;-0.2855666;1.986239;
637953009740263123;1414.504;31;7;2;0.6;1.8;599;3.33889816360601;-0.3078177;0.6542765;-0.2492719;0.7666552;0;2.4;0.04986576;2.253138;
637953009754256234;1415.904;31;7;2;0.6;1.8;1400;1.42857142857143;0.5785087;2.18944;0.4086556;2.047424;-0.3078177;0.6542765;-0.2492719;0.7666552;
637953009762258012;1416.703;31;7;2;0.6;1.8;799;2.50312891113892;-0.7794226;1.05;-0.6707063;1.209354;0.5785087;2.18944;0.4086556;2.047424;
637953009769249566;1417.403;31;7;2;0.6;1.8;700;2.85714285714286;0.8863269;1.656283;0.6550924;1.670542;-0.7794226;1.05;-0.6707063;1.209354;
637953009776251123;1418.102;31;7;2;0.6;1.8;700;2.85714285714286;-0.8863271;1.656283;-0.7619498;1.753911;0.8863269;1.656283;0.6550924;1.670542;
637953009783242676;1418.802;31;7;2;0.6;1.8;700;2.85714285714286;0.779423;1.05;0.6876104;1.173256;-0.8863271;1.656283;-0.7619498;1.753911;
637953009790244229;1419.502;31;7;2;0.6;1.8;700;2.85714285714286;-0.5785094;2.18944;-0.5497481;2.093136;0.779423;1.05;0.6876104;1.173256;
637953009797235790;1420.201;31;7;2;0.6;1.8;699;2.86123032904149;0.3078185;0.6542768;0.1759633;0.8746365;-0.5785094;2.18944;-0.5497481;2.093136;
637953009817340260;1422.212;31;7;4;0.1;1.4;1111;3.6003600360036;-0.2394138;0.8422151;-0.2320151;0.8632786;0;2.2;0.003148759;2.190192;
637953009829332926;1423.411;31;7;4;0.1;1.4;1199;3.33611342785655;0.4499513;2.036231;0.4305027;2.008237;-0.2394138;0.8422151;-0.2320151;0.8632786;
637953009846326703;1425.111;31;7;4;0.1;1.4;1699;2.35432607416127;-0.6062176;1.15;-0.6385799;1.160828;0.4499513;2.036231;0.4305027;2.008237;
637953009858315443;1426.31;31;7;4;0.1;1.4;1199;3.33611342785655;0.6893654;1.621554;0.6472919;1.624218;-0.6062176;1.15;-0.6385799;1.160828;
637953009870308112;1427.509;31;7;4;0.1;1.4;1199;3.33611342785655;-0.6893655;1.621553;-0.6629393;1.655947;0.6893654;1.621554;0.6472919;1.624218;
637953009885311450;1429.009;31;7;4;0.1;1.4;1500;2.66666666666667;0.6062179;1.15;0.6055559;1.159106;-0.6893655;1.621553;-0.6629393;1.655947;
637953009898307917;1430.308;31;7;4;0.1;1.4;1300;3.07692307692308;-0.4499517;2.036231;-0.4324361;2.044301;0.6062179;1.15;0.6055559;1.159106;
637953009910402316;1431.519;31;7;4;0.1;1.4;1210;3.30578512396694;0.2394144;0.8422153;0.2173178;0.8513567;-0.4499517;2.036231;-0.4324361;2.044301;
637953009943392136;1434.817;31;7;4.5;0.1;2.2;1499;3.00200133422282;-0.3762217;0.4663379;-0.3914596;0.507532;0;2.6;0.008258214;2.599448;
637953009956385025;1436.117;31;7;4.5;0.1;2.2;1299;3.46420323325635;0.7070663;2.342649;0.6905814;2.346078;-0.3762217;0.4663379;-0.3914596;0.507532;
637953009980370357;1438.515;31;7;4.5;0.1;2.2;2399;1.87578157565652;-0.9526277;0.9499994;-0.951811;0.9501418;0.7070663;2.342649;0.6905814;2.346078;
637953009991372805;1439.615;31;7;4.5;0.1;2.2;1100;4.09090909090909;1.083289;1.691013;1.088703;1.685817;-0.9526277;0.9499994;-0.951811;0.9501418;
637953010002365247;1440.715;31;7;4.5;0.1;2.2;1099;4.09463148316652;-1.083289;1.691012;-1.044721;1.722835;1.083289;1.691013;1.088703;1.685817;
637953010011367251;1441.614;31;7;4.5;0.1;2.2;899;5.0055617352614;0.9526281;0.9500003;0.9185057;0.9784371;-1.083289;1.691012;-1.044721;1.722835;
637953010021369477;1442.615;31;7;4.5;0.1;2.2;1001;4.4955044955045;-0.7070671;2.342648;-0.6670501;2.32379;0.9526281;0.9500003;0.9185057;0.9784371;
637953010051456161;1445.624;31;7;4.5;0.1;2.2;3009;1.49551345962114;0.3762226;0.4663382;0.3818029;0.4505625;-0.7070671;2.342648;-0.6670501;2.32379;
637953010070450387;1447.523;31;7;3.5;0.2;2;1000;3.5;-0.3420197;0.5603072;-0.320288;0.5709728;0;2.5;0.0468473;2.425004;
637953010079442384;1448.422;31;7;3.5;0.2;2;899;3.89321468298109;0.6427875;2.266045;0.6737728;2.308505;-0.3420197;0.5603072;-0.320288;0.5709728;
637953010091435050;1449.622;31;7;3.5;0.2;2;1200;2.91666666666667;-0.8660251;0.9999995;-0.8372607;1.007586;0.6427875;2.266045;0.6737728;2.308505;
637953010106428386;1451.121;31;7;3.5;0.2;2;1499;2.33488992661775;0.9848077;1.673648;0.9611182;1.685606;-0.8660251;0.9999995;-0.8372607;1.007586;
637953010118421055;1452.32;31;7;3.5;0.2;2;1199;2.91909924937448;-0.9848078;1.673648;-0.9377636;1.707519;0.9848077;1.673648;0.9611182;1.685606;
637953010128413277;1453.32;31;7;3.5;0.2;2;1000;3.5;0.8660256;1;0.8396475;1.071626;-0.9848078;1.673648;-0.9377636;1.707519;
637953010136415056;1454.119;31;7;3.5;0.2;2;800;4.375;-0.6427882;2.266044;-0.6363572;2.283319;0.8660256;1;0.8396475;1.071626;
637953010159400162;1456.418;31;7;3.5;0.2;2;2299;1.52240104393214;0.3420205;0.5603075;0.3188217;0.6075177;-0.6427882;2.266044;-0.6363572;2.283319;
