637953066354968464;367.246;32;0;3.5;0.2;2;1999;1.75087543771886;-0.3420197;0.5603072;-0.2846004;0.6408247;0;2.5;0.06734824;2.48135;
637953066371962284;368.9455;32;0;3.5;0.2;2;1699;2.06003531489111;0.6427875;2.266045;0.5838746;2.226505;-0.3420197;0.5603072;-0.2846004;0.6408247;
637953066389946325;370.7444;32;0;3.5;0.2;2;1799;1.94552529182879;-0.8660251;0.9999995;-0.8252765;1.055008;0.6427875;2.266045;0.5838746;2.226505;
637953066397948121;371.5441;32;0;3.5;0.2;2;800;4.375;0.9848077;1.673648;0.8960227;1.628332;-0.8660251;0.9999995;-0.8252765;1.055008;
637953066423047723;374.0538;32;0;3.5;0.2;2;2510;1.39442231075697;-0.9848078;1.673648;-0.9385077;1.656934;0.9848077;1.673648;0.8960227;1.628332;
637953066437046949;375.4535;32;0;3.5;0.2;2;1400;2.5;0.8660256;1;0.782469;1.022077;-0.9848078;1.673648;-0.9385077;1.656934;
637953066461042344;377.8529;32;0;3.5;0.2;2;2399;1.45894122551063;-0.6427882;2.266044;-0.6324103;2.17612;0.8660256;1;0.782469;1.022077;
637953066473129500;379.0628;32;0;3.5;0.2;2;1210;2.89256198347107;0.3420205;0.5603075;0.2896265;0.6260362;-0.6427882;2.266044;-0.6324103;2.17612;
637953066487131576;380.4622;32;0;1.5;1.1;2;500;3;-0.3420197;0.5603072;-0.1188413;1.062023;0;2.5;0.03367225;2.451669;
637953066495127784;381.2619;32;0;1.5;1.1;2;800;1.875;0.6427875;2.266045;0.9504557;2.05755;-0.3420197;0.5603072;-0.1188413;1.062023;
637953066502119351;381.9615;32;0;1.5;1.1;2;700;2.14285714285714;-0.8660251;0.9999995;-0.8679484;1.250501;0.6427875;2.266045;0.9504557;2.05755;
637953066507120482;382.4612;32;0;1.5;1.1;2;500;3;0.9848077;1.673648;0.9868261;1.448626;-0.8660251;0.9999995;-0.8679484;1.250501;
637953066525104520;384.2602;32;0;1.5;1.1;2;1799;0.833796553640912;-0.9848078;1.673648;-0.7273998;1.697909;0.9848077;1.673648;0.9868261;1.448626;
637953066543118575;386.0611;32;0;1.5;1.1;2;1801;0.832870627429206;0.8660256;1;0.5851504;1.007199;-0.9848078;1.673648;-0.7273998;1.697909;
637953066557091711;387.4591;32;0;1.5;1.1;2;1398;1.07296137339056;-0.6427882;2.266044;-0.477046;2.021645;0.8660256;1;0.5851504;1.007199;
637953066570084631;388.7584;32;0;1.5;1.1;2;1299;1.15473441108545;0.3420205;0.5603075;0.2165332;0.6681863;-0.6427882;2.266044;-0.477046;2.021645;
637953066606182742;392.3678;32;0;3;0.2;1.4;1810;1.65745856353591;-0.2394138;0.8422151;-0.2566984;0.8793511;0;2.2;-0.02595795;2.254066;
637953066612134080;392.9624;32;0;3;0.2;1.4;595;5.04201680672269;0.4499513;2.036231;0.4453435;1.985571;-0.2394138;0.8422151;-0.2566984;0.8793511;
637953066637169704;395.4663;32;0;3;0.2;1.4;2504;1.19808306709265;-0.6062176;1.15;-0.5925327;1.089713;0.4499513;2.036231;0.4453435;1.985571;
637953066645161504;396.2658;32;0;3;0.2;1.4;800;3.75;0.6893654;1.621554;0.6656572;1.703789;-0.6062176;1.15;-0.5925327;1.089713;
637953066664155770;398.1651;32;0;3;0.2;1.4;1899;1.57977883096367;-0.6893655;1.621553;-0.7040448;1.619872;0.6893654;1.621554;0.6656572;1.703789;
637953066684140263;400.1639;32;0;3;0.2;1.4;1999;1.50075037518759;0.6062179;1.15;0.5124996;1.161851;-0.6893655;1.621553;-0.7040448;1.619872;
637953066694142511;401.1637;32;0;3;0.2;1.4;1000;3;-0.4499517;2.036231;-0.3961918;1.994312;0.6062179;1.15;0.5124996;1.161851;
637953066702244328;401.9743;32;0;3;0.2;1.4;811;3.69913686806412;0.2394144;0.8422153;0.2377708;0.8484534;-0.4499517;2.036231;-0.3961918;1.994312;
637953066733231294;405.0728;32;0;2;0.6;1.8;1659;1.20554550934298;-0.3078177;0.6542765;-0.2940516;0.9314063;0;2.4;-0.001030236;2.132661;
637953066741233093;405.8723;32;0;2;0.6;1.8;800;2.5;0.5785087;2.18944;0.4619026;2.127021;-0.3078177;0.6542765;-0.2940516;0.9314063;
637953066749224891;406.6722;32;0;2;0.6;1.8;800;2.5;-0.7794226;1.05;-0.8717808;1.185837;0.5785087;2.18944;0.4619026;2.127021;
637953066765223649;408.2714;32;0;2;0.6;1.8;1599;1.25078173858662;0.8863269;1.656283;0.659927;1.719017;-0.7794226;1.05;-0.8717808;1.185837;
637953066772215302;408.9711;32;0;2;0.6;1.8;700;2.85714285714286;-0.8863271;1.656283;-1.078159;1.643716;0.8863269;1.656283;0.659927;1.719017;
637953066794206415;411.1699;32;0;2;0.6;1.8;2199;0.909504320145521;0.779423;1.05;0.631202;1.269966;-0.8863271;1.656283;-1.078159;1.643716;
637953066818301870;413.5799;32;0;2;0.6;1.8;2410;0.829875518672199;-0.5785094;2.18944;-0.5339833;2.08625;0.779423;1.05;0.631202;1.269966;
637953066849291690;416.6787;32;0;2;0.6;1.8;3099;0.645369474023879;0.3078185;0.6542768;0.295762;0.8159986;-0.5785094;2.18944;-0.5339833;2.08625;
637953066881278880;419.8771;32;0;4.5;0.1;2.2;1367;3.29188002926116;-0.3762217;0.4663379;-0.3475683;0.4872032;0;2.6;-0.04101906;2.573347;
637953066915256515;423.2755;32;0;4.5;0.1;2.2;3398;1.32430841671572;0.7070663;2.342649;0.7010849;2.311605;-0.3762217;0.4663379;-0.3475683;0.4872032;
637953066929649751;424.7221;32;0;4.5;0.1;2.2;1447;3.10988251554941;-0.9526277;0.9499994;-0.9351945;0.9953139;0.7070663;2.342649;0.7010849;2.311605;
637953066947253707;426.4744;32;0;4.5;0.1;2.2;1752;2.56849315068493;1.083289;1.691013;1.097516;1.686234;-0.9526277;0.9499994;-0.9351945;0.9953139;
637953066973349571;429.084;32;0;4.5;0.1;2.2;2610;1.72413793103448;-1.083289;1.691012;-1.051958;1.693362;1.083289;1.691013;1.097516;1.686234;
637953066997334962;431.4828;32;0;4.5;0.1;2.2;2399;1.87578157565652;0.9526281;0.9500003;0.9432291;0.9549222;-1.083289;1.691012;-1.051958;1.693362;
637953067017329461;433.482;32;0;4.5;0.1;2.2;1999;2.25112556278139;-0.7070671;2.342648;-0.6872219;2.310441;0.9526281;0.9500003;0.9432291;0.9549222;
637953067056308215;437.3801;32;0;4.5;0.1;2.2;3898;1.15443817342227;0.3762226;0.4663382;0.3744644;0.4369189;-0.7070671;2.342648;-0.6872219;2.310441;
637953067072711901;439.0275;32;0;2.5;0.3;1.4;648;3.85802469135802;-0.2394138;0.8422151;-0.1783575;0.9550215;0;2.2;-0.005326096;2.185745;
637953067080343622;439.7838;32;0;2.5;0.3;1.4;756;3.30687830687831;0.4499513;2.036231;0.446198;2.01689;-0.2394138;0.8422151;-0.1783575;0.9550215;
637953067093286530;441.0785;32;0;2.5;0.3;1.4;1295;1.93050193050193;-0.6062176;1.15;-0.5301667;1.183425;0.4499513;2.036231;0.446198;2.01689;
637953067108289901;442.5779;32;0;2.5;0.3;1.4;1499;1.66777851901268;0.6893654;1.621554;0.5789124;1.673892;-0.6062176;1.15;-0.5301667;1.183425;
637953067117281918;443.4774;32;0;2.5;0.3;1.4;900;2.77777777777778;-0.6893655;1.621553;-0.6787317;1.550592;0.6893654;1.621554;0.5789124;1.673892;
637953067137382126;445.4875;32;0;2.5;0.3;1.4;2010;1.24378109452736;0.6062179;1.15;0.5617269;1.245219;-0.6893655;1.621553;-0.6787317;1.550592;
637953067149374820;446.687;32;0;2.5;0.3;1.4;1199;2.08507089241034;-0.4499517;2.036231;-0.4240434;2.001856;0.6062179;1.15;0.5617269;1.245219;
637953067166440604;448.3861;32;0;2.5;0.3;1.4;1699;1.47145379635079;0.2394144;0.8422153;0.2171322;0.9616997;-0.4499517;2.036231;-0.4240434;2.001856;
637953067203463868;452.0957;32;0;4;0.1;1.4;1511;2.64725347452019;-0.2394138;0.8422151;-0.2592976;0.8391923;0;2.2;-0.01069059;2.161306;
637953067221457911;453.8948;32;0;4;0.1;1.4;1799;2.22345747637576;0.4499513;2.036231;0.4140582;2.02186;-0.2394138;0.8422151;-0.2592976;0.8391923;
637953067233450608;455.0941;32;0;4;0.1;1.4;1199;3.33611342785655;-0.6062176;1.15;-0.5640201;1.142454;0.4499513;2.036231;0.4140582;2.02186;
637953067255435546;457.2928;32;0;4;0.1;1.4;2199;1.81900864029104;0.6893654;1.621554;0.6424189;1.61755;-0.6062176;1.15;-0.5640201;1.142454;
637953067283431838;460.0919;32;0;4;0.1;1.4;2799;1.4290818149339;-0.6893655;1.621553;-0.6564907;1.634659;0.6893654;1.621554;0.6424189;1.61755;
637953067296414756;461.3911;32;0;4;0.1;1.4;1299;3.07929176289453;0.6062179;1.15;0.5623027;1.166867;-0.6893655;1.621553;-0.6564907;1.634659;
637953067318409701;463.5902;32;0;4;0.1;1.4;2199;1.81900864029104;-0.4499517;2.036231;-0.4379593;2.042397;0.6062179;1.15;0.5623027;1.166867;
637953067327411724;464.4905;32;0;4;0.1;1.4;900;4.44444444444444;0.2394144;0.8422153;0.2081267;0.8630217;-0.4499517;2.036231;-0.4379593;2.042397;
637953068980172805;629.7682;32;1;3;0.2;1.4;1199;2.50208507089241;-0.2394138;0.8422151;-0.2149371;0.8235503;0;2.2;-0.02488506;2.209177;
637953068997216639;631.4725;32;1;3;0.2;1.4;1704;1.76056338028169;0.4499513;2.036231;0.4046549;2.02781;-0.2394138;0.8422151;-0.2149371;0.8235503;
637953069025152913;634.2662;32;1;3;0.2;1.4;2794;1.07372942018611;-0.6062176;1.15;-0.5743022;1.215215;0.4499513;2.036231;0.4046549;2.02781;
637953069042256757;635.9767;32;1;3;0.2;1.4;1711;1.75336060783168;0.6893654;1.621554;0.5970556;1.620749;-0.6062176;1.15;-0.5743022;1.215215;
637953069061251030;637.8759;32;1;3;0.2;1.4;1899;1.57977883096367;-0.6893655;1.621553;-0.6641425;1.608391;0.6893654;1.621554;0.5970556;1.620749;
637953069081245520;639.8752;32;1;3;0.2;1.4;1999;1.50075037518759;0.6062179;1.15;0.539685;1.204129;-0.6893655;1.621553;-0.6641425;1.608391;
637953069100239808;641.7743;32;1;3;0.2;1.4;1899;1.57977883096367;-0.4499517;2.036231;-0.4234128;1.96203;0.6062179;1.15;0.539685;1.204129;
637953069122224731;643.973;32;1;3;0.2;1.4;2199;1.36425648021828;0.2394144;0.8422153;0.1804496;0.8877652;-0.4499517;2.036231;-0.4234128;1.96203;
637953069177197085;649.4705;32;1;4.5;0.1;2.2;1799;2.50138966092273;-0.3762217;0.4663379;-0.3454108;0.4606841;0;2.6;-0.0105333;2.603509;
637953069190190006;650.77;32;1;4.5;0.1;2.2;1299;3.46420323325635;0.7070663;2.342649;0.7276354;2.351055;-0.3762217;0.4663379;-0.3454108;0.4606841;
637953069228288568;654.5792;32;1;4.5;0.1;2.2;3809;1.18141244421108;-0.9526277;0.9499994;-0.952566;0.9587553;0.7070663;2.342649;0.7276354;2.351055;
637953069257497615;657.508;32;1;4.5;0.1;2.2;2929;1.53636053260498;1.083289;1.691013;1.037569;1.709571;-0.9526277;0.9499994;-0.952566;0.9587553;
637953069272609142;659.0192;32;1;4.5;0.1;2.2;1511;2.97816015883521;-1.083289;1.691012;-1.044219;1.659843;1.083289;1.691013;1.037569;1.709571;
637953069307252022;662.4754;32;1;4.5;0.1;2.2;3456;1.30208333333333;0.9526281;0.9500003;0.9294268;0.9653722;-1.083289;1.691012;-1.044219;1.659843;
637953069389322693;670.6831;32;1;4.5;0.1;2.2;8208;0.548245614035088;-0.7070671;2.342648;-0.7196614;2.309743;0.9526281;0.9500003;0.9294268;0.9653722;
637953069417419012;673.4926;32;1;4.5;0.1;2.2;2810;1.60142348754448;0.3762226;0.4663382;0.4019765;0.502583;-0.7070671;2.342648;-0.7196614;2.309743;
637953069468400467;678.5903;32;1;3.5;0.2;2;2898;1.20772946859903;-0.3420197;0.5603072;-0.3548142;0.6221125;0;2.5;0.009615134;2.400625;
637953069482383610;679.9897;32;1;3.5;0.2;2;1399;2.50178699070765;0.6427875;2.266045;0.5942157;2.309921;-0.3420197;0.5603072;-0.3548142;0.6221125;
637953069497497005;681.5001;32;1;3.5;0.2;2;1510;2.31788079470199;-0.8660251;0.9999995;-0.8283416;1.030761;0.6427875;2.266045;0.5942157;2.309921;
637953069510479923;682.7994;32;1;3.5;0.2;2;1299;2.69438029253272;0.9848077;1.673648;0.9255502;1.621494;-0.8660251;0.9999995;-0.8283416;1.030761;
637953069529474191;684.6987;32;1;3.5;0.2;2;1899;1.84307530279094;-0.9848078;1.673648;-0.9641795;1.695668;0.9848077;1.673648;0.9255502;1.621494;
637953069542467110;685.9979;32;1;3.5;0.2;2;1299;2.69438029253272;0.8660256;1;0.8180947;1.00554;-0.9848078;1.673648;-0.9641795;1.695668;
637953069556460259;687.3975;32;1;3.5;0.2;2;1400;2.5;-0.6427882;2.266044;-0.6195428;2.256021;0.8660256;1;0.8180947;1.00554;
637953069580455648;689.796;32;1;3.5;0.2;2;2398;1.45954962468724;0.3420205;0.5603075;0.3428017;0.5927434;-0.6427882;2.266044;-0.6195428;2.256021;
637953069606435843;692.3948;32;1;2.5;0.3;1.4;1499;1.66777851901268;-0.2394138;0.8422151;-0.1780215;0.9455853;0;2.2;-0.02429705;2.152332;
637953069624429886;694.1943;32;1;2.5;0.3;1.4;1799;1.38966092273485;0.4499513;2.036231;0.4042403;1.963382;-0.2394138;0.8422151;-0.1780215;0.9455853;
637953069663529590;698.1034;32;1;2.5;0.3;1.4;3909;0.639549756971092;-0.6062176;1.15;-0.5360321;1.120548;0.4499513;2.036231;0.4042403;1.963382;
637953069675522279;699.303;32;1;2.5;0.3;1.4;1200;2.08333333333333;0.6893654;1.621554;0.6062133;1.523677;-0.6062176;1.15;-0.5360321;1.120548;
637953069683514085;700.1024;32;1;2.5;0.3;1.4;799;3.12891113892365;-0.6893655;1.621553;-0.6431231;1.553788;0.6893654;1.621554;0.6062133;1.523677;
637953069693506333;701.1019;32;1;2.5;0.3;1.4;1000;2.5;0.6062179;1.15;0.49891;1.163465;-0.6893655;1.621553;-0.6431231;1.553788;
637953069702508350;702.0015;32;1;2.5;0.3;1.4;900;2.77777777777778;-0.4499517;2.036231;-0.4492463;1.947721;0.6062179;1.15;0.49891;1.163465;
637953069711500371;702.9013;32;1;2.5;0.3;1.4;900;2.77777777777778;0.2394144;0.8422153;0.2583345;0.8302655;-0.4499517;2.036231;-0.4492463;1.947721;
637953069742487339;705.9998;32;1;1.5;1.1;2;1699;0.882872277810477;-0.3420197;0.5603072;-0.2587029;0.9279575;0;2.5;-0.09057429;2.276866;
637953069751489365;706.8995;32;1;1.5;1.1;2;900;1.66666666666667;0.6427875;2.266045;0.3836358;1.918334;-0.3420197;0.5603072;-0.2587029;0.9279575;
637953069760481383;707.799;32;1;1.5;1.1;2;899;1.66852057842047;-0.8660251;0.9999995;-0.7422701;1.176943;0.6427875;2.266045;0.3836358;1.918334;
637953069779475647;709.6983;32;1;1.5;1.1;2;1899;0.789889415481833;0.9848077;1.673648;0.8882028;1.671232;-0.8660251;0.9999995;-0.7422701;1.176943;
637953069802580840;712.0082;32;1;1.5;1.1;2;2310;0.649350649350649;-0.9848078;1.673648;-0.8056789;1.652053;0.9848077;1.673648;0.8882028;1.671232;
637953069813563307;713.1077;32;1;1.5;1.1;2;1099;1.36487716105551;0.8660256;1;0.7806349;1.083284;-0.9848078;1.673648;-0.8056789;1.652053;
637953069822485314;713.9993;32;1;1.5;1.1;2;892;1.68161434977578;-0.6427882;2.266044;-0.4920776;1.982255;0.8660256;1;0.7806349;1.083284;
637953069830557130;714.8068;32;1;1.5;1.1;2;808;1.85643564356436;0.3420205;0.5603075;0.2485529;0.9452019;-0.6427882;2.266044;-0.4920776;1.982255;
637953069911525324;722.903;32;1;2;0.6;1.8;4098;0.488042947779405;-0.3078177;0.6542765;-0.2673338;0.8302175;0;2.4;-0.007355522;2.353131;
637953069922517796;724.0026;32;1;2;0.6;1.8;1100;1.81818181818182;0.5785087;2.18944;0.4956444;2.165725;-0.3078177;0.6542765;-0.2673338;0.8302175;
637953069932510038;725.002;32;1;2;0.6;1.8;999;2.002002002002;-0.7794226;1.05;-0.7450354;1.073209;0.5785087;2.18944;0.4956444;2.165725;
637953069940511841;725.8019;32;1;2;0.6;1.8;800;2.5;0.8863269;1.656283;0.772332;1.590575;-0.7794226;1.05;-0.7450354;1.073209;
637953069957615685;727.5121;32;1;2;0.6;1.8;1710;1.16959064327485;-0.8863271;1.656283;-0.9682729;1.589865;0.8863269;1.656283;0.772332;1.590575;
637953069975600985;729.311;32;1;2;0.6;1.8;1799;1.11172873818788;0.779423;1.05;0.6538401;1.163879;-0.8863271;1.656283;-0.9682729;1.589865;
637953070007587332;732.5098;32;1;2;0.6;1.8;3199;0.625195373554236;-0.5785094;2.18944;-0.542375;2.037578;0.779423;1.05;0.6538401;1.163879;
637953070019584630;733.7091;32;1;2;0.6;1.8;1199;1.66805671392827;0.3078185;0.6542768;0.2641076;0.8716178;-0.5785094;2.18944;-0.542375;2.037578;
637953070045901432;736.3488;32;1;4;0.1;1.4;1540;2.5974025974026;-0.2394138;0.8422151;-0.2753245;0.8770065;0;2.2;-0.008713949;2.204214;
637953070065565853;738.3076;32;1;4;0.1;1.4;1959;2.04185809086269;0.4499513;2.036231;0.4420829;2.011819;-0.2394138;0.8422151;-0.2753245;0.8770065;
637953070080559225;739.8066;32;1;4;0.1;1.4;1499;2.66844563042028;-0.6062176;1.15;-0.5976713;1.174655;0.4499513;2.036231;0.4420829;2.011819;
637953070129650256;744.7152;32;1;4;0.1;1.4;4909;0.814829904257486;0.6893654;1.621554;0.6653177;1.581119;-0.6062176;1.15;-0.5976713;1.174655;
637953070140632721;745.8146;32;1;4;0.1;1.4;1099;3.63967242948135;-0.6893655;1.621553;-0.7124931;1.640569;0.6893654;1.621554;0.6653177;1.581119;
637953070177621030;749.5129;32;1;4;0.1;1.4;3623;1.10405741098537;0.6062179;1.15;0.5719246;1.13925;-0.6893655;1.621553;-0.7124931;1.640569;
637953070212618899;753.0121;32;1;4;0.1;1.4;3499;1.14318376679051;-0.4499517;2.036231;-0.4605723;2.011436;0.6062179;1.15;0.5719246;1.13925;
637953070247596760;756.51;32;1;4;0.1;1.4;3498;1.14351057747284;0.2394144;0.8422153;0.2303552;0.8633927;-0.4499517;2.036231;-0.4605723;2.011436;
637953071073284905;839.077;32;2;4.5;0.1;2.2;7160;0.628491620111732;-0.3762217;0.4663379;-0.4024451;0.5016494;0;2.6;-0.006067261;2.552914;
637953071126196795;844.3691;32;2;4.5;0.1;2.2;5292;0.850340136054422;0.7070663;2.342649;0.6948858;2.318016;-0.3762217;0.4663379;-0.4024451;0.5016494;
637953071185220059;850.2717;32;2;4.5;0.1;2.2;5903;0.762324241910893;-0.9526277;0.9499994;-0.9267732;0.9803753;0.7070663;2.342649;0.6948858;2.318016;
637953071206274791;852.3765;32;2;4.5;0.1;2.2;2105;2.13776722090261;1.083289;1.691013;1.045033;1.66974;-0.9526277;0.9499994;-0.9267732;0.9803753;
637953071224213066;854.1697;32;2;4.5;0.1;2.2;1793;2.50976017847183;-1.083289;1.691012;-1.062343;1.694035;1.083289;1.691013;1.045033;1.66974;
637953071237255995;855.4753;32;2;4.5;0.1;2.2;1306;3.44563552833078;0.9526281;0.9500003;0.9341648;0.9735636;-1.083289;1.691012;-1.062343;1.694035;
637953071263299603;858.0791;32;2;4.5;0.1;2.2;2604;1.72811059907834;-0.7070671;2.342648;-0.7173467;2.297447;0.9526281;0.9500003;0.9341648;0.9735636;
637953071285234533;860.2733;32;2;4.5;0.1;2.2;2194;2.0510483135825;0.3762226;0.4663382;0.4128865;0.4817021;-0.7070671;2.342648;-0.7173467;2.297447;
637953071317221725;863.4716;32;2;3;0.2;1.4;1699;1.76574455562095;-0.2394138;0.8422151;-0.2485798;0.9084405;0;2.2;0.009423642;2.165959;
637953071332215095;864.9708;32;2;3;0.2;1.4;1499;2.00133422281521;0.4499513;2.036231;0.4299954;2.021855;-0.2394138;0.8422151;-0.2485798;0.9084405;
637953071347318488;866.4813;32;2;3;0.2;1.4;1510;1.98675496688742;-0.6062176;1.15;-0.5189607;1.185396;0.4499513;2.036231;0.4299954;2.021855;
637953071359311178;867.6805;32;2;3;0.2;1.4;1199;2.50208507089241;0.6893654;1.621554;0.6143931;1.599162;-0.6062176;1.15;-0.5189607;1.185396;
637953071369313431;868.6804;32;2;3;0.2;1.4;1000;3;-0.6893655;1.621553;-0.6259935;1.632562;0.6893654;1.621554;0.6143931;1.599162;
637953071409292416;872.6784;32;2;3;0.2;1.4;3998;0.750375187593797;0.6062179;1.15;0.5912175;1.186674;-0.6893655;1.621553;-0.6259935;1.632562;
637953071425286012;874.2779;32;2;3;0.2;1.4;1600;1.875;-0.4499517;2.036231;-0.4097861;1.969513;0.6062179;1.15;0.5912175;1.186674;
637953071445310510;876.2816;32;2;3;0.2;1.4;2004;1.49700598802395;0.2394144;0.8422153;0.2265215;0.7528653;-0.4499517;2.036231;-0.4097861;1.969513;
637953071489350411;880.6859;32;2;3.5;0.2;2;2610;1.34099616858238;-0.3420197;0.5603072;-0.2748787;0.6214823;0;2.5;0.004950987;2.444183;
637953071505394013;882.2901;32;2;3.5;0.2;2;1604;2.18204488778055;0.6427875;2.266045;0.6021342;2.236293;-0.3420197;0.5603072;-0.2748787;0.6214823;
637953071526328719;884.384;32;2;3.5;0.2;2;2094;1.67144221585482;-0.8660251;0.9999995;-0.8407196;1.057344;0.6427875;2.266045;0.6021342;2.236293;
637953071556368279;887.3874;32;2;3.5;0.2;2;3003;1.16550116550117;0.9848077;1.673648;0.9017599;1.65611;-0.8660251;0.9999995;-0.8407196;1.057344;
637953071569311188;888.6821;32;2;3.5;0.2;2;1295;2.7027027027027;-0.9848078;1.673648;-1.001976;1.633439;0.9848077;1.673648;0.9017599;1.65611;
637953071582304106;889.9816;32;2;3.5;0.2;2;1299;2.69438029253272;0.8660256;1;0.8309285;1.020902;-0.9848078;1.673648;-1.001976;1.633439;
637953071599301471;891.6807;32;2;3.5;0.2;2;1699;2.06003531489111;-0.6427882;2.266044;-0.634829;2.202946;0.8660256;1;0.8309285;1.020902;
637953071619451370;893.696;32;2;3.5;0.2;2;2015;1.73697270471464;0.3420205;0.5603075;0.3303218;0.6256377;-0.6427882;2.266044;-0.634829;2.202946;
637953071640440241;895.7946;32;2;1.5;1.1;2;1210;1.2396694214876;-0.3420197;0.5603072;-0.1504707;0.9824678;0;2.5;-0.04552636;2.346932;
637953071653383148;897.0892;32;2;1.5;1.1;2;1295;1.15830115830116;0.6427875;2.266045;0.5626273;2.188577;-0.3420197;0.5603072;-0.1504707;0.9824678;
637953071663385395;898.0889;32;2;1.5;1.1;2;1000;1.5;-0.8660251;0.9999995;-0.7226996;1.35538;0.6427875;2.266045;0.5626273;2.188577;
637953071670376966;898.7883;32;2;1.5;1.1;2;700;2.14285714285714;0.9848077;1.673648;0.7411202;1.71083;-0.8660251;0.9999995;-0.7226996;1.35538;
637953071677378540;899.4884;32;2;1.5;1.1;2;700;2.14285714285714;-0.9848078;1.673648;-0.6569783;1.637882;0.9848077;1.673648;0.7411202;1.71083;
637953071683369887;900.088;32;2;1.5;1.1;2;600;2.5;0.8660256;1;0.6787487;1.32123;-0.9848078;1.673648;-0.6569783;1.637882;
637953071703364381;902.0868;32;2;1.5;1.1;2;1999;0.750375187593797;-0.6427882;2.266044;-0.473902;2.111573;0.8660256;1;0.6787487;1.32123;
637953071719357976;903.6863;32;2;1.5;1.1;2;1599;0.938086303939963;0.3420205;0.5603075;0.1967373;0.9914023;-0.6427882;2.266044;-0.473902;2.111573;
637953071740342693;905.7854;32;2;4;0.1;1.4;1100;3.63636363636364;-0.2394138;0.8422151;-0.2498353;0.837168;0;2.2;0.002169557;2.202578;
637953071783432374;910.0945;32;2;4;0.1;1.4;4309;0.928289626363425;0.4499513;2.036231;0.4198008;1.999745;-0.2394138;0.8422151;-0.2498353;0.837168;
637953071796715359;911.4297;32;2;4;0.1;1.4;1335;2.99625468164794;-0.6062176;1.15;-0.6395939;1.18614;0.4499513;2.036231;0.4198008;1.999745;
637953071831413157;914.8921;32;2;4;0.1;1.4;3462;1.15540150202195;0.6893654;1.621554;0.6575178;1.591054;-0.6062176;1.15;-0.6395939;1.18614;
637953071854398322;917.191;32;2;4;0.1;1.4;2299;1.73988690735102;-0.6893655;1.621553;-0.6912317;1.605501;0.6893654;1.621554;0.6575178;1.591054;
637953071875393040;919.2902;32;2;4;0.1;1.4;2099;1.90566936636494;0.6062179;1.15;0.5739387;1.160043;-0.6893655;1.621553;-0.6912317;1.605501;
637953071890386411;920.7895;32;2;4;0.1;1.4;1499;2.66844563042028;-0.4499517;2.036231;-0.4318216;1.99834;0.6062179;1.15;0.5739387;1.160043;
637953071903719407;922.1301;32;2;4;0.1;1.4;1341;2.98284862043251;0.2394144;0.8422153;0.2086829;0.8814921;-0.4499517;2.036231;-0.4318216;1.99834;
637953071922486942;923.999;32;2;2;0.6;1.8;1099;1.81983621474067;-0.3078177;0.6542765;-0.2175045;0.8780479;0;2.4;0.03152575;2.276883;
637953071930478739;924.7987;32;2;2;0.6;1.8;800;2.5;0.5785087;2.18944;0.4566509;2.162817;-0.3078177;0.6542765;-0.2175045;0.8780479;
637953071939470765;925.6982;32;2;2;0.6;1.8;900;2.22222222222222;-0.7794226;1.05;-0.8947459;1.056829;0.5785087;2.18944;0.4566509;2.162817;
637953071947472623;926.4982;32;2;2;0.6;1.8;800;2.5;0.8863269;1.656283;0.9608377;1.631067;-0.7794226;1.05;-0.8947459;1.056829;
637953071956513405;927.4023;32;2;2;0.6;1.8;904;2.21238938053097;-0.8863271;1.656283;-0.7571591;1.622678;0.8863269;1.656283;0.9608377;1.631067;
637953071964519354;928.2023;32;2;2;0.6;1.8;800;2.5;0.779423;1.05;0.8813071;1.155493;-0.8863271;1.656283;-0.7571591;1.622678;
637953071973460666;929.0969;32;2;2;0.6;1.8;895;2.23463687150838;-0.5785094;2.18944;-0.5131533;1.975878;0.779423;1.05;0.8813071;1.155493;
637953071994455386;931.1962;32;2;2;0.6;1.8;2099;0.952834683182468;0.3078185;0.6542768;0.285926;0.8193173;-0.5785094;2.18944;-0.5131533;1.975878;
637953072035434594;935.2942;32;2;2.5;0.3;1.4;1100;2.27272727272727;-0.2394138;0.8422151;-0.2038138;0.901731;0;2.2;-0.01078643;2.069242;
637953072066531583;938.4039;32;2;2.5;0.3;1.4;3110;0.803858520900322;0.4499513;2.036231;0.4002675;1.988166;-0.2394138;0.8422151;-0.2038138;0.901731;
637953072088516525;940.603;32;2;2.5;0.3;1.4;2199;1.1368804001819;-0.6062176;1.15;-0.5437625;1.206401;0.4499513;2.036231;0.4002675;1.988166;
637953072097518548;941.5022;32;2;2.5;0.3;1.4;899;2.78086763070078;0.6893654;1.621554;0.672959;1.539896;-0.6062176;1.15;-0.5437625;1.206401;
637953072106510568;942.4017;32;2;2.5;0.3;1.4;900;2.77777777777778;-0.6893655;1.621553;-0.7271972;1.542858;0.6893654;1.621554;0.672959;1.539896;
637953072115512596;943.3015;32;2;2.5;0.3;1.4;900;2.77777777777778;0.6062179;1.15;0.5608144;1.219119;-0.6893655;1.621553;-0.7271972;1.542858;
637953072123504387;944.1011;32;2;2.5;0.3;1.4;800;3.125;-0.4499517;2.036231;-0.4001334;2.045096;0.6062179;1.15;0.5608144;1.219119;
637953072144489104;946.2001;32;2;2.5;0.3;1.4;2099;1.19104335397808;0.2394144;0.8422153;0.1914148;0.9680294;-0.4499517;2.036231;-0.4001334;2.045096;
637953072773667078;1009.116;32;3;2.5;0.3;1.4;1299;1.92455735180908;-0.2394138;0.8422151;-0.1875082;0.9312121;0;2.2;-0.04732064;2.120229;
637953072782659090;1010.015;32;3;2.5;0.3;1.4;900;2.77777777777778;0.4499513;2.036231;0.386148;2.000249;-0.2394138;0.8422151;-0.1875082;0.9312121;
637953072793701579;1011.12;32;3;2.5;0.3;1.4;1105;2.26244343891403;-0.6062176;1.15;-0.559782;1.182925;0.4499513;2.036231;0.386148;2.000249;
637953072803643814;1012.114;32;3;2.5;0.3;1.4;994;2.51509054325956;0.6893654;1.621554;0.5639548;1.600755;-0.6062176;1.15;-0.559782;1.182925;
637953072813646058;1013.114;32;3;2.5;0.3;1.4;1000;2.5;-0.6893655;1.621553;-0.6245571;1.614491;0.6893654;1.621554;0.5639548;1.600755;
637953072824638529;1014.214;32;3;2.5;0.3;1.4;1100;2.27272727272727;0.6062179;1.15;0.4618335;1.13726;-0.6893655;1.621553;-0.6245571;1.614491;
637953072833740575;1015.125;32;3;2.5;0.3;1.4;911;2.74423710208562;-0.4499517;2.036231;-0.3908798;1.997528;0.6062179;1.15;0.4618335;1.13726;
637953072844773054;1016.229;32;3;2.5;0.3;1.4;1104;2.26449275362319;0.2394144;0.8422153;0.130583;0.8447012;-0.4499517;2.036231;-0.3908798;1.997528;
637953072878710684;1019.622;32;3;3;0.2;1.4;2499;1.20048019207683;-0.2394138;0.8422151;-0.2297638;0.799291;0;2.2;0.01552044;2.207512;
637953072901755860;1021.926;32;3;3;0.2;1.4;2249;1.33392618941752;0.4499513;2.036231;0.3870261;1.99197;-0.2394138;0.8422151;-0.2297638;0.799291;
637953072926691465;1024.42;32;3;3;0.2;1.4;2494;1.20288692862871;-0.6062176;1.15;-0.6126467;1.130522;0.4499513;2.036231;0.3870261;1.99197;
637953072949726640;1026.723;32;3;3;0.2;1.4;2303;1.30264871906209;0.6893654;1.621554;0.6993225;1.615249;-0.6062176;1.15;-0.6126467;1.130522;
637953072958788678;1027.63;32;3;3;0.2;1.4;906;3.3112582781457;-0.6893655;1.621553;-0.6487732;1.572441;0.6893654;1.621554;0.6993225;1.615249;
637953072967780698;1028.529;32;3;3;0.2;1.4;899;3.33704115684093;0.6062179;1.15;0.591297;1.134055;-0.6893655;1.621553;-0.6487732;1.572441;
637953072975777555;1029.329;32;3;3;0.2;1.4;800;3.75;-0.4499517;2.036231;-0.3971389;2.017804;0.6062179;1.15;0.591297;1.134055;
637953072985000730;1030.259;32;3;3;0.2;1.4;930;3.2258064516129;0.2394144;0.8422153;0.2394328;0.7769399;-0.4499517;2.036231;-0.3971389;2.017804;
637953073009761608;1032.727;32;3;1.5;1.1;2;1799;0.833796553640912;-0.3420197;0.5603072;-0.3006697;0.7425338;0;2.5;0.0248215;2.375481;
637953073017763397;1033.527;32;3;1.5;1.1;2;800;1.875;0.6427875;2.266045;0.3864648;2.047515;-0.3420197;0.5603072;-0.3006697;0.7425338;
637953073028755877;1034.626;32;3;1.5;1.1;2;1099;1.36487716105551;-0.8660251;0.9999995;-0.6474286;1.295896;0.6427875;2.266045;0.3864648;2.047515;
637953073044743881;1036.226;32;3;1.5;1.1;2;1600;0.9375;0.9848077;1.673648;0.7572111;1.683491;-0.8660251;0.9999995;-0.6474286;1.295896;
637953073054742862;1037.225;32;3;1.5;1.1;2;1000;1.5;-0.9848078;1.673648;-0.6535245;1.598018;0.9848077;1.673648;0.7572111;1.683491;
637953073063742825;1038.125;32;3;1.5;1.1;2;900;1.66666666666667;0.8660256;1;0.4893057;1.310215;-0.9848078;1.673648;-0.6535245;1.598018;
637953073080842774;1039.835;32;3;1.5;1.1;2;1710;0.87719298245614;-0.6427882;2.266044;-0.3927656;2.238243;0.8660256;1;0.4893057;1.310215;
637953073095837073;1041.334;32;3;1.5;1.1;2;1499;1.00066711140761;0.3420205;0.5603075;0.1814865;1.030593;-0.6427882;2.266044;-0.3927656;2.238243;
637953073144818078;1046.232;32;3;2;0.6;1.8;3299;0.606244316459533;-0.3078177;0.6542765;-0.2561101;0.8419607;0;2.4;-0.05191495;2.111939;
637953073162802114;1048.031;32;3;2;0.6;1.8;1799;1.11172873818788;0.5785087;2.18944;0.588152;2.033431;-0.3078177;0.6542765;-0.2561101;0.8419607;
637953073174804818;1049.231;32;3;2;0.6;1.8;1199;1.66805671392827;-0.7794226;1.05;-0.6379406;1.195698;0.5785087;2.18944;0.588152;2.033431;
637953073182906642;1050.042;32;3;2;0.6;1.8;811;2.46609124537608;0.8863269;1.656283;0.7302263;1.67648;-0.7794226;1.05;-0.6379406;1.195698;
637953073189898211;1050.741;32;3;2;0.6;1.8;699;2.86123032904149;-0.8863271;1.656283;-0.8896248;1.634973;0.8863269;1.656283;0.7302263;1.67648;
637953073198890230;1051.64;32;3;2;0.6;1.8;900;2.22222222222222;0.779423;1.05;0.8026965;1.21001;-0.8863271;1.656283;-0.8896248;1.634973;
637953073205901805;1052.341;32;3;2;0.6;1.8;700;2.85714285714286;-0.5785094;2.18944;-0.6679154;2.134653;0.779423;1.05;0.8026965;1.21001;
637953073212893376;1053.04;32;3;2;0.6;1.8;700;2.85714285714286;0.3078185;0.6542768;0.4743517;0.8164724;-0.5785094;2.18944;-0.6679154;2.134653;
637953073243880340;1056.139;32;3;4;0.1;1.4;1200;3.33333333333333;-0.2394138;0.8422151;-0.2275558;0.8529429;0;2.2;0.004263754;2.1888;
637953073274157149;1059.175;32;3;4;0.1;1.4;3036;1.31752305665349;0.4499513;2.036231;0.4253506;1.995094;-0.2394138;0.8422151;-0.2275558;0.8529429;
637953073322838084;1064.035;32;3;4;0.1;1.4;4860;0.823045267489712;-0.6062176;1.15;-0.6228092;1.173694;0.4499513;2.036231;0.4253506;1.995094;
637953073339881914;1065.739;32;3;4;0.1;1.4;1704;2.34741784037559;0.6893654;1.621554;0.6725357;1.628947;-0.6062176;1.15;-0.6228092;1.173694;
637953073351934623;1066.945;32;3;4;0.1;1.4;1205;3.3195020746888;-0.6893655;1.621553;-0.6864691;1.593344;0.6893654;1.621554;0.6725357;1.628947;
637953073409917657;1072.742;32;3;4;0.1;1.4;5797;0.690012075211316;0.6062179;1.15;0.6024976;1.187942;-0.6893655;1.621553;-0.6864691;1.593344;
637953073433900502;1075.141;32;3;4;0.1;1.4;2399;1.66736140058358;-0.4499517;2.036231;-0.4605971;2.001525;0.6062179;1.15;0.6024976;1.187942;
637953073450894342;1076.84;32;3;4;0.1;1.4;1699;2.35432607416127;0.2394144;0.8422153;0.2031358;0.8652484;-0.4499517;2.036231;-0.4605971;2.001525;
637953073487877306;1080.539;32;3;3.5;0.2;2;2399;1.45894122551063;-0.3420197;0.5603072;-0.3708783;0.6083035;0;2.5;0.001625848;2.467993;
637953073498989802;1081.649;32;3;3.5;0.2;2;1111;3.15031503150315;0.6427875;2.266045;0.6181503;2.238645;-0.3420197;0.5603072;-0.3708783;0.6083035;
637953073518974298;1083.648;32;3;3.5;0.2;2;1999;1.75087543771886;-0.8660251;0.9999995;-0.8842127;0.9698416;0.6427875;2.266045;0.6181503;2.238645;
637953073528966541;1084.648;32;3;3.5;0.2;2;1000;3.5;0.9848077;1.673648;0.9607164;1.615119;-0.8660251;0.9999995;-0.8842127;0.9698416;
637953073536968340;1085.447;32;3;3.5;0.2;2;799;4.38047559449312;-0.9848078;1.673648;-0.9560476;1.635326;0.9848077;1.673648;0.9607164;1.615119;
637953073567945300;1088.546;32;3;3.5;0.2;2;3098;1.12976113621691;0.8660256;1;0.7918198;0.999642;-0.9848078;1.673648;-0.9560476;1.635326;
637953073583938893;1090.145;32;3;3.5;0.2;2;1599;2.18886804252658;-0.6427882;2.266044;-0.6113529;2.258241;0.8660256;1;0.7918198;0.999642;
637953073606934065;1092.444;32;3;3.5;0.2;2;2299;1.52240104393214;0.3420205;0.5603075;0.297837;0.6381537;-0.6427882;2.266044;-0.6113529;2.258241;
637953073659015769;1097.653;32;3;4.5;0.1;2.2;1510;2.98013245033113;-0.3762217;0.4663379;-0.3710467;0.502561;0;2.6;0.04415458;2.591474;
637953073696004079;1101.351;32;3;4.5;0.1;2.2;3699;1.21654501216545;0.7070663;2.342649;0.6878687;2.303532;-0.3762217;0.4663379;-0.3710467;0.502561;
637953073709047020;1102.656;32;3;4.5;0.1;2.2;1304;3.45092024539877;-0.9526277;0.9499994;-0.9759687;0.991643;0.7070663;2.342649;0.6878687;2.303532;
637953073716988795;1103.45;32;3;4.5;0.1;2.2;794;5.66750629722922;1.083289;1.691013;1.08146;1.648592;-0.9526277;0.9499994;-0.9759687;0.991643;
637953073726991045;1104.45;32;3;4.5;0.1;2.2;1000;4.5;-1.083289;1.691012;-1.07545;1.645658;1.083289;1.691013;1.08146;1.648592;
637953073742984637;1106.049;32;3;4.5;0.1;2.2;1599;2.81425891181989;0.9526281;0.9500003;0.914791;0.9812986;-1.083289;1.691012;-1.07545;1.645658;
637953073754977331;1107.249;32;3;4.5;0.1;2.2;1200;3.75;-0.7070671;2.342648;-0.6850704;2.311215;0.9526281;0.9500003;0.914791;0.9812986;
637953073784014806;1110.152;32;3;4.5;0.1;2.2;2904;1.5495867768595;0.3762226;0.4663382;0.3739841;0.4550064;-0.7070671;2.342648;-0.6850704;2.311215;
637953074939552616;1225.706;32;4;2;0.6;1.8;2094;0.955109837631328;-0.3078177;0.6542765;-0.2528113;0.7847717;0;2.4;-0.0005755704;2.132694;
637953074950595094;1226.81;32;4;2;0.6;1.8;1104;1.81159420289855;0.5785087;2.18944;0.5445052;2.097388;-0.3078177;0.6542765;-0.2528113;0.7847717;
637953074959557102;1227.705;32;4;2;0.6;1.8;895;2.23463687150838;-0.7794226;1.05;-0.7323263;1.116045;0.5785087;2.18944;0.5445052;2.097388;
637953074966638704;1228.415;32;4;2;0.6;1.8;711;2.81293952180028;0.8863269;1.656283;0.7849582;1.556009;-0.7794226;1.05;-0.7323263;1.116045;
637953074974640497;1229.215;32;4;2;0.6;1.8;799;2.50312891113892;-0.8863271;1.656283;-0.8030956;1.588108;0.8863269;1.656283;0.7849582;1.556009;
637953074982682302;1230.019;32;4;2;0.6;1.8;805;2.48447204968944;0.779423;1.05;0.712231;1.112603;-0.8863271;1.656283;-0.8030956;1.588108;
637953074990684102;1230.819;32;4;2;0.6;1.8;800;2.5;-0.5785094;2.18944;-0.5378613;2.112367;0.779423;1.05;0.712231;1.112603;
637953074998625879;1231.614;32;4;2;0.6;1.8;795;2.51572327044025;0.3078185;0.6542768;0.1576259;0.6784306;-0.5785094;2.18944;-0.5378613;2.112367;
637953075017620157;1233.513;32;4;2.5;0.3;1.4;1094;2.28519195612431;-0.2394138;0.8422151;-0.100748;0.8725321;0;2.2;0.01097027;2.203717;
637953075025661968;1234.317;32;4;2.5;0.3;1.4;805;3.1055900621118;0.4499513;2.036231;0.3628803;2.018061;-0.2394138;0.8422151;-0.100748;0.8725321;
637953075037724677;1235.523;32;4;2.5;0.3;1.4;1206;2.07296849087894;-0.6062176;1.15;-0.5935514;1.103881;0.4499513;2.036231;0.3628803;2.018061;
637953075045716468;1236.323;32;4;2.5;0.3;1.4;799;3.12891113892365;0.6893654;1.621554;0.6890032;1.621835;-0.6062176;1.15;-0.5935514;1.103881;
637953075062710290;1238.022;32;4;2.5;0.3;1.4;1700;1.47058823529412;-0.6893655;1.621553;-0.751096;1.616437;0.6893654;1.621554;0.6890032;1.621835;
637953075071762330;1238.927;32;4;2.5;0.3;1.4;905;2.76243093922652;0.6062179;1.15;0.5116222;1.112916;-0.6893655;1.621553;-0.751096;1.616437;
637953075081704565;1239.921;32;4;2.5;0.3;1.4;995;2.51256281407035;-0.4499517;2.036231;-0.4671641;2.071667;0.6062179;1.15;0.5116222;1.112916;
637953075091696815;1240.921;32;4;2.5;0.3;1.4;999;2.5025025025025;0.2394144;0.8422153;0.180629;0.8663119;-0.4499517;2.036231;-0.4671641;2.071667;
637953075112991599;1243.057;32;4;1.5;1.1;2;1337;1.12191473448018;-0.3420197;0.5603072;-0.1646904;1.078233;0;2.5;-0.03635;2.245149;
637953075122683776;1244.02;32;4;1.5;1.1;2;962;1.55925155925156;0.6427875;2.266045;0.3983143;2.027725;-0.3420197;0.5603072;-0.1646904;1.078233;
637953075130685578;1244.819;32;4;1.5;1.1;2;800;1.875;-0.8660251;0.9999995;-0.6505581;1.344494;0.6427875;2.266045;0.3983143;2.027725;
637953075145778971;1246.329;32;4;1.5;1.1;2;1510;0.993377483443709;0.9848077;1.673648;0.8052281;1.670393;-0.8660251;0.9999995;-0.6505581;1.344494;
637953075153780770;1247.129;32;4;1.5;1.1;2;800;1.875;-0.9848078;1.673648;-0.6917957;1.608629;0.9848077;1.673648;0.8052281;1.670393;
637953075160782345;1247.829;32;4;1.5;1.1;2;700;2.14285714285714;0.8660256;1;0.706049;1.336243;-0.9848078;1.673648;-0.6917957;1.608629;
637953075168774143;1248.629;32;4;1.5;1.1;2;800;1.875;-0.6427882;2.266044;-0.5385913;1.997843;0.8660256;1;0.706049;1.336243;
637953075176775941;1249.428;32;4;1.5;1.1;2;799;1.87734668335419;0.3420205;0.5603075;0.2785169;0.7739888;-0.6427882;2.266044;-0.5385913;1.997843;
637953075196759502;1251.427;32;4;3;0.2;1.4;1099;2.72975432211101;-0.2394138;0.8422151;-0.2513298;0.9296775;0;2.2;-0.02705351;2.252569;
637953075204761301;1252.227;32;4;3;0.2;1.4;800;3.75;0.4499513;2.036231;0.4721028;2.093739;-0.2394138;0.8422151;-0.2513298;0.9296775;
637953075214753550;1253.226;32;4;3;0.2;1.4;999;3.003003003003;-0.6062176;1.15;-0.6272087;1.157397;0.4499513;2.036231;0.4721028;2.093739;
637953075223745571;1254.126;32;4;3;0.2;1.4;900;3.33333333333333;0.6893654;1.621554;0.6096565;1.581743;-0.6062176;1.15;-0.6272087;1.157397;
637953075241739616;1255.925;32;4;3;0.2;1.4;1799;1.66759310728182;-0.6893655;1.621553;-0.6064419;1.637976;0.6893654;1.621554;0.6096565;1.581743;
637953075252738488;1257.024;32;4;3;0.2;1.4;1099;2.72975432211101;0.6062179;1.15;0.5853474;1.185858;-0.6893655;1.621553;-0.6064419;1.637976;
637953075275723659;1259.323;32;4;3;0.2;1.4;2299;1.30491518051327;-0.4499517;2.036231;-0.4152319;1.990005;0.6062179;1.15;0.5853474;1.185858;
637953075289716805;1260.723;32;4;3;0.2;1.4;1399;2.14438884917798;0.2394144;0.8422153;0.2351767;0.9017572;-0.4499517;2.036231;-0.4152319;1.990005;
637953075312821990;1263.033;32;4;3.5;0.2;2;1199;2.91909924937448;-0.3420197;0.5603072;-0.3437905;0.6234312;0;2.5;-0.02751041;2.425662;
637953075321814018;1263.932;32;4;3.5;0.2;2;900;3.88888888888889;0.6427875;2.266045;0.6359023;2.323104;-0.3420197;0.5603072;-0.3437905;0.6234312;
637953075352800987;1267.031;32;4;3.5;0.2;2;3099;1.12939657954179;-0.8660251;0.9999995;-0.8442793;1.047381;0.6427875;2.266045;0.6359023;2.323104;
637953075375786152;1269.33;32;4;3.5;0.2;2;2299;1.52240104393214;0.9848077;1.673648;0.9524795;1.641683;-0.8660251;0.9999995;-0.8442793;1.047381;
637953075388789078;1270.629;32;4;3.5;0.2;2;1300;2.69230769230769;-0.9848078;1.673648;-0.978039;1.619468;0.9848077;1.673648;0.9524795;1.641683;
637953075398781324;1271.629;32;4;3.5;0.2;2;1000;3.5;0.8660256;1;0.8938624;1.004483;-0.9848078;1.673648;-0.978039;1.619468;
637953075417775594;1273.528;32;4;3.5;0.2;2;1899;1.84307530279094;-0.6427882;2.266044;-0.5594872;2.217767;0.8660256;1;0.8938624;1.004483;
637953075430768515;1274.827;32;4;3.5;0.2;2;1299;2.69438029253272;0.3420205;0.5603075;0.3035197;0.6484616;-0.6427882;2.266044;-0.5594872;2.217767;
637953075467856854;1278.537;32;4;4;0.1;1.4;1410;2.83687943262411;-0.2394138;0.8422151;-0.2651048;0.852723;0;2.2;0.0002512885;2.190894;
637953075499844048;1281.735;32;4;4;0.1;1.4;3198;1.25078173858662;0.4499513;2.036231;0.4092614;2.009308;-0.2394138;0.8422151;-0.2651048;0.852723;
637953075512836967;1283.035;32;4;4;0.1;1.4;1300;3.07692307692308;-0.6062176;1.15;-0.5764105;1.155952;0.4499513;2.036231;0.4092614;2.009308;
637953075545829447;1286.333;32;4;4;0.1;1.4;3298;1.21285627653123;0.6893654;1.621554;0.6781662;1.652396;-0.6062176;1.15;-0.5764105;1.155952;
637953075557818697;1287.533;32;4;4;0.1;1.4;1199;3.33611342785655;-0.6893655;1.621553;-0.6621272;1.620765;0.6893654;1.621554;0.6781662;1.652396;
637953075569811393;1288.732;32;4;4;0.1;1.4;1199;3.33611342785655;0.6062179;1.15;0.5722733;1.150195;-0.6893655;1.621553;-0.6621272;1.620765;
637953075577813192;1289.532;32;4;4;0.1;1.4;800;5;-0.4499517;2.036231;-0.4161023;2.031413;0.6062179;1.15;0.5722733;1.150195;
637953075612791730;1293.03;32;4;4;0.1;1.4;3499;1.14318376679051;0.2394144;0.8422153;0.2383665;0.8805933;-0.4499517;2.036231;-0.4161023;2.031413;
637953075640897318;1295.84;32;4;4.5;0.1;2.2;1259;3.57426528991263;-0.3762217;0.4663379;-0.3600612;0.5124899;0;2.6;0.006695264;2.550719;
637953075649889335;1296.74;32;4;4.5;0.1;2.2;900;5;0.7070663;2.342649;0.7026952;2.322986;-0.3762217;0.4663379;-0.3600612;0.5124899;
637953075681873930;1299.938;32;4;4.5;0.1;2.2;3198;1.40712945590994;-0.9526277;0.9499994;-0.9402921;0.9938901;0.7070663;2.342649;0.7026952;2.322986;
637953075739960642;1305.747;32;4;4.5;0.1;2.2;5809;0.7746600103288;1.083289;1.691013;1.043104;1.701102;-0.9526277;0.9499994;-0.9402921;0.9938901;
637953075756952812;1307.446;32;4;4.5;0.1;2.2;1699;2.64861683343143;-1.083289;1.691012;-1.063679;1.668561;1.083289;1.691013;1.043104;1.701102;
637953075767002792;1308.451;32;4;4.5;0.1;2.2;1005;4.47761194029851;0.9526281;0.9500003;0.9554527;0.9226912;-1.083289;1.691012;-1.063679;1.668561;
637953075775941060;1309.345;32;4;4.5;0.1;2.2;894;5.03355704697987;-0.7070671;2.342648;-0.7423732;2.326846;0.9526281;0.9500003;0.9554527;0.9226912;
637953075831023736;1314.853;32;4;4.5;0.1;2.2;5508;0.816993464052288;0.3762226;0.4663382;0.3441811;0.4980069;-0.7070671;2.342648;-0.7423732;2.326846;
637953076417225913;1373.472;32;5;3.5;0.2;2;1697;2.06246317030053;-0.3420197;0.5603072;-0.3360314;0.6281341;0;2.5;-0.01924859;2.465509;
637953076441321329;1375.881;32;5;3.5;0.2;2;2410;1.45228215767635;0.6427875;2.266045;0.6589852;2.208247;-0.3420197;0.5603072;-0.3360314;0.6281341;
637953076466306948;1378.38;32;5;3.5;0.2;2;2499;1.40056022408964;-0.8660251;0.9999995;-0.8770596;1.00221;0.6427875;2.266045;0.6589852;2.208247;
637953076479299869;1379.68;32;5;3.5;0.2;2;1299;2.69438029253272;0.9848077;1.673648;0.9802915;1.664664;-0.8660251;0.9999995;-0.8770596;1.00221;
637953076492296097;1380.979;32;5;3.5;0.2;2;1299;2.69438029253272;-0.9848078;1.673648;-0.9596766;1.672322;0.9848077;1.673648;0.9802915;1.664664;
637953076515281267;1383.278;32;5;3.5;0.2;2;2299;1.52240104393214;0.8660256;1;0.818747;1.011848;-0.9848078;1.673648;-0.9596766;1.672322;
637953076526283738;1384.377;32;5;3.5;0.2;2;1099;3.18471337579618;-0.6427882;2.266044;-0.5958188;2.240999;0.8660256;1;0.818747;1.011848;
637953076538278862;1385.577;32;5;3.5;0.2;2;1200;2.91666666666667;0.3420205;0.5603075;0.3342841;0.6358243;-0.6427882;2.266044;-0.5958188;2.240999;
637953076556380490;1387.387;32;5;2;0.6;1.8;900;2.22222222222222;-0.3078177;0.6542765;-0.3172378;0.7135687;0;2.4;-0.03866946;2.30866;
637953076568370906;1388.587;32;5;2;0.6;1.8;1199;1.66805671392827;0.5785087;2.18944;0.3350936;2.081075;-0.3078177;0.6542765;-0.3172378;0.7135687;
637953076579369306;1389.686;32;5;2;0.6;1.8;1099;1.81983621474067;-0.7794226;1.05;-0.6669286;1.120783;0.5785087;2.18944;0.3350936;2.081075;
637953076587380390;1390.488;32;5;2;0.6;1.8;802;2.49376558603491;0.8863269;1.656283;0.7697877;1.629209;-0.7794226;1.05;-0.6669286;1.120783;
637953076605357575;1392.285;32;5;2;0.6;1.8;1798;1.11234705228031;-0.8863271;1.656283;-0.8382374;1.616136;0.8863269;1.656283;0.7697877;1.629209;
637953076622351395;1393.984;32;5;2;0.6;1.8;1699;1.17716303708064;0.779423;1.05;0.6640287;1.179593;-0.8863271;1.656283;-0.8382374;1.616136;
637953076632343645;1394.984;32;5;2;0.6;1.8;999;2.002002002002;-0.5785094;2.18944;-0.5113478;2.070904;0.779423;1.05;0.6640287;1.179593;
637953076643456144;1396.094;32;5;2;0.6;1.8;1111;1.8001800180018;0.3078185;0.6542768;0.2264944;0.75192;-0.5785094;2.18944;-0.5113478;2.070904;
637953076666431308;1398.393;32;5;3;0.2;1.4;1199;2.50208507089241;-0.2394138;0.8422151;-0.2590705;0.8974289;0;2.2;-0.01100312;2.120358;
637953076677433780;1399.493;32;5;3;0.2;1.4;1100;2.72727272727273;0.4499513;2.036231;0.4117334;2.00247;-0.2394138;0.8422151;-0.2590705;0.8974289;
637953076688426253;1400.592;32;5;3;0.2;1.4;1099;2.72975432211101;-0.6062176;1.15;-0.5929871;1.187458;0.4499513;2.036231;0.4117334;2.00247;
637953076705420071;1402.291;32;5;3;0.2;1.4;1699;1.76574455562095;0.6893654;1.621554;0.6203012;1.609223;-0.6062176;1.15;-0.5929871;1.187458;
637953076715412319;1403.291;32;5;3;0.2;1.4;1000;3;-0.6893655;1.621553;-0.6408287;1.635394;0.6893654;1.621554;0.6203012;1.609223;
637953076730405686;1404.791;32;5;3;0.2;1.4;1500;2;0.6062179;1.15;0.5548717;1.149399;-0.6893655;1.621553;-0.6408287;1.635394;
637953076738407491;1405.59;32;5;3;0.2;1.4;799;3.75469336670839;-0.4499517;2.036231;-0.5121726;1.961177;0.6062179;1.15;0.5548717;1.149399;
637953076749399960;1406.69;32;5;3;0.2;1.4;1099;2.72975432211101;0.2394144;0.8422153;0.2152279;0.8545609;-0.4499517;2.036231;-0.5121726;1.961177;
637953076762512909;1408;32;5;2.5;0.3;1.4;600;4.16666666666667;-0.2394138;0.8422151;-0.2296468;0.9091799;0;2.2;-0.03146022;2.189821;
637953076769504482;1408.7;32;5;2.5;0.3;1.4;700;3.57142857142857;0.4499513;2.036231;0.4022897;1.973482;-0.2394138;0.8422151;-0.2296468;0.9091799;
637953076774455596;1409.195;32;5;2.5;0.3;1.4;495;5.05050505050505;-0.6062176;1.15;-0.592885;1.187735;0.4499513;2.036231;0.4022897;1.973482;
637953076785498079;1410.299;32;5;2.5;0.3;1.4;1104;2.26449275362319;0.6893654;1.621554;0.5632833;1.605476;-0.6062176;1.15;-0.592885;1.187735;
637953076793499876;1411.099;32;5;2.5;0.3;1.4;800;3.125;-0.6893655;1.621553;-0.662371;1.554255;0.6893654;1.621554;0.5632833;1.605476;
637953076812484144;1412.998;32;5;2.5;0.3;1.4;1899;1.31648235913639;0.6062179;1.15;0.5662723;1.166196;-0.6893655;1.621553;-0.662371;1.554255;
637953076820465939;1413.796;32;5;2.5;0.3;1.4;798;3.1328320802005;-0.4499517;2.036231;-0.4601942;1.953126;0.6062179;1.15;0.5662723;1.166196;
637953076827497522;1414.499;32;5;2.5;0.3;1.4;703;3.55618776671408;0.2394144;0.8422153;0.2305888;0.8975387;-0.4499517;2.036231;-0.4601942;1.953126;
637953076840480437;1415.797;32;5;1.5;1.1;2;699;2.14592274678112;-0.3420197;0.5603072;-0.1985368;0.9955221;0;2.5;0.006196222;2.26867;
637953076846471784;1416.396;32;5;1.5;1.1;2;600;2.5;0.6427875;2.266045;0.5513137;2.245747;-0.3420197;0.5603072;-0.1985368;0.9955221;
637953076853463356;1417.096;32;5;1.5;1.1;2;699;2.14592274678112;-0.8660251;0.9999995;-0.8088071;1.266028;0.6427875;2.266045;0.5513137;2.245747;
637953076859464708;1417.696;32;5;1.5;1.1;2;600;2.5;0.9848077;1.673648;0.7704839;1.674878;-0.8660251;0.9999995;-0.8088071;1.266028;
637953076864575853;1418.207;32;5;1.5;1.1;2;511;2.93542074363992;-0.9848078;1.673648;-0.7360564;1.646516;0.9848077;1.673648;0.7704839;1.674878;
637953076870567207;1418.806;32;5;1.5;1.1;2;600;2.5;0.8660256;1;0.77123;1.442561;-0.9848078;1.673648;-0.7360564;1.646516;
637953076885563999;1420.306;32;5;1.5;1.1;2;1499;1.00066711140761;-0.6427882;2.266044;-0.5334641;2.153275;0.8660256;1;0.77123;1.442561;
637953076902555048;1422.005;32;5;1.5;1.1;2;1699;0.882872277810477;0.3420205;0.5603075;0.2591911;0.9214323;-0.6427882;2.266044;-0.5334641;2.153275;
637953076933534430;1425.103;32;5;4;0.1;1.4;999;4.004004004004;-0.2394138;0.8422151;-0.2176609;0.880307;0;2.2;-0.00427166;2.157626;
637953076982627310;1430.012;32;5;4;0.1;1.4;4909;0.814829904257486;0.4499513;2.036231;0.4422509;2.025304;-0.2394138;0.8422151;-0.2176609;0.880307;
637953076993622255;1431.112;32;5;4;0.1;1.4;1100;3.63636363636364;-0.6062176;1.15;-0.6107632;1.174558;0.4499513;2.036231;0.4422509;2.025304;
637953077002612984;1432.011;32;5;4;0.1;1.4;899;4.44938820912125;0.6893654;1.621554;0.7015675;1.579659;-0.6062176;1.15;-0.6107632;1.174558;
637953077022609526;1434.01;32;5;4;0.1;1.4;1999;2.00100050025012;-0.6893655;1.621553;-0.6905394;1.636588;0.6893654;1.621554;0.7015675;1.579659;
637953077031719769;1434.921;32;5;4;0.1;1.4;911;4.39077936333699;0.6062179;1.15;0.6208544;1.140005;-0.6893655;1.621553;-0.6905394;1.636588;
637953077039059808;1435.663;32;5;4;0.1;1.4;742;5.39083557951483;-0.4499517;2.036231;-0.4323336;2.004445;0.6062179;1.15;0.6208544;1.140005;
637953077059049299;1437.662;32;5;4;0.1;1.4;1999;2.00100050025012;0.2394144;0.8422153;0.2268621;0.7996602;-0.4499517;2.036231;-0.4323336;2.004445;
637953077106689329;1442.418;32;5;4.5;0.1;2.2;1358;3.31369661266568;-0.3762217;0.4663379;-0.3567581;0.5046965;0;2.6;0.033743;2.565133;
637953077125674816;1444.317;32;5;4.5;0.1;2.2;1899;2.3696682464455;0.7070663;2.342649;0.6663607;2.315413;-0.3762217;0.4663379;-0.3567581;0.5046965;
637953077137667513;1445.517;32;5;4.5;0.1;2.2;1200;3.75;-0.9526277;0.9499994;-0.9183983;0.9811924;0.7070663;2.342649;0.6663607;2.315413;
637953077157772033;1447.526;32;5;4.5;0.1;2.2;2010;2.23880597014925;1.083289;1.691013;1.058766;1.689677;-0.9526277;0.9499994;-0.9183983;0.9811924;
637953077169764733;1448.726;32;5;4.5;0.1;2.2;1199;3.75312760633862;-1.083289;1.691012;-1.106649;1.671171;1.083289;1.691013;1.058766;1.689677;
637953077201751924;1451.925;32;5;4.5;0.1;2.2;3199;1.40668959049703;0.9526281;0.9500003;0.911437;0.9738657;-1.083289;1.691012;-1.106649;1.671171;
637953077214744845;1453.224;32;5;4.5;0.1;2.2;1299;3.46420323325635;-0.7070671;2.342648;-0.6970206;2.304417;0.9526281;0.9500003;0.911437;0.9738657;
637953077237730014;1455.523;32;5;4.5;0.1;2.2;2299;1.9573727707699;0.3762226;0.4663382;0.3434585;0.5040264;-0.7070671;2.342648;-0.6970206;2.304417;
637953077727843682;1504.535;32;6;1.5;1.1;2;801;1.87265917602996;-0.3420197;0.5603072;-0.267232;0.8265666;0;2.5;0.01455341;2.338512;
637953077743867280;1506.138;32;6;1.5;1.1;2;1603;0.935745477230193;0.6427875;2.266045;0.5596882;1.939212;-0.3420197;0.5603072;-0.267232;0.8265666;
637953077753929547;1507.144;32;6;1.5;1.1;2;1006;1.49105367793241;-0.8660251;0.9999995;-0.4866001;1.334278;0.6427875;2.266045;0.5596882;1.939212;
637953077768922916;1508.643;32;6;1.5;1.1;2;1499;1.00066711140761;0.9848077;1.673648;0.6801192;1.683817;-0.8660251;0.9999995;-0.4866001;1.334278;
637953077777914939;1509.542;32;6;1.5;1.1;2;899;1.66852057842047;-0.9848078;1.673648;-0.6129439;1.651053;0.9848077;1.673648;0.6801192;1.683817;
637953077784856500;1510.236;32;6;1.5;1.1;2;694;2.16138328530259;0.8660256;1;0.7444698;1.39342;-0.9848078;1.673648;-0.6129439;1.651053;
637953077792908310;1511.042;32;6;1.5;1.1;2;806;1.86104218362283;-0.6427882;2.266044;-0.4370783;2.153049;0.8660256;1;0.7444698;1.39342;
637953077799959894;1511.747;32;6;1.5;1.1;2;705;2.12765957446809;0.3420205;0.5603075;0.3231778;0.8738581;-0.6427882;2.266044;-0.4370783;2.153049;
637953077875877473;1519.338;32;6;4;0.1;1.4;4598;0.869943453675511;-0.2394138;0.8422151;-0.2430385;0.8653687;0;2.2;-0.0115618;2.17591;
637953077899972937;1521.748;32;6;4;0.1;1.4;2410;1.6597510373444;0.4499513;2.036231;0.4461088;2.005552;-0.2394138;0.8422151;-0.2430385;0.8653687;
637953077923964121;1524.147;32;6;4;0.1;1.4;2399;1.66736140058358;-0.6062176;1.15;-0.6151994;1.146361;0.4499513;2.036231;0.4461088;2.005552;
637953077969934457;1528.745;32;6;4;0.1;1.4;4598;0.869943453675511;0.6893654;1.621554;0.6585009;1.626232;-0.6062176;1.15;-0.6151994;1.146361;
637953077984927826;1530.244;32;6;4;0.1;1.4;1499;2.66844563042028;-0.6893655;1.621553;-0.6779458;1.620236;0.6893654;1.621554;0.6585009;1.626232;
637953078000921421;1531.843;32;6;4;0.1;1.4;1599;2.50156347717323;0.6062179;1.15;0.5905125;1.14619;-0.6893655;1.621553;-0.6779458;1.620236;
637953078029017739;1534.653;32;6;4;0.1;1.4;2810;1.42348754448399;-0.4499517;2.036231;-0.4455259;2.037335;0.6062179;1.15;0.5905125;1.14619;
637953078046021563;1536.353;32;6;4;0.1;1.4;1699;2.35432607416127;0.2394144;0.8422153;0.2163258;0.8513548;-0.4499517;2.036231;-0.4455259;2.037335;
637953078077998752;1539.551;32;6;2;0.6;1.8;1299;1.53964588144727;-0.3078177;0.6542765;-0.2160977;0.7869824;0;2.4;-0.0188443;2.234758;
637953078087040790;1540.455;32;6;2;0.6;1.8;904;2.21238938053097;0.5785087;2.18944;0.5359203;2.214637;-0.3078177;0.6542765;-0.2160977;0.7869824;
637953078095992798;1541.35;32;6;2;0.6;1.8;895;2.23463687150838;-0.7794226;1.05;-0.6949967;1.082068;0.5785087;2.18944;0.5359203;2.214637;
637953078102994378;1542.05;32;6;2;0.6;1.8;700;2.85714285714286;0.8863269;1.656283;0.7401381;1.702808;-0.7794226;1.05;-0.6949967;1.082068;
637953078109985945;1542.75;32;6;2;0.6;1.8;699;2.86123032904149;-0.8863271;1.656283;-0.7932438;1.741264;0.8863269;1.656283;0.7401381;1.702808;
637953078117987743;1543.549;32;6;2;0.6;1.8;800;2.5;0.779423;1.05;0.9161533;1.067613;-0.8863271;1.656283;-0.7932438;1.741264;
637953078124979314;1544.249;32;6;2;0.6;1.8;699;2.86123032904149;-0.5785094;2.18944;-0.651746;2.118934;0.779423;1.05;0.9161533;1.067613;
637953078133981339;1545.148;32;6;2;0.6;1.8;900;2.22222222222222;0.3078185;0.6542768;0.310355;0.7377504;-0.5785094;2.18944;-0.651746;2.118934;
637953078149964932;1546.748;32;6;2.5;0.3;1.4;800;3.125;-0.2394138;0.8422151;-0.3128091;0.8511372;0;2.2;-0.01325824;2.119297;
637953078158076757;1547.558;32;6;2.5;0.3;1.4;811;3.0826140567201;0.4499513;2.036231;0.4030053;2.038629;-0.2394138;0.8422151;-0.3128091;0.8511372;
637953078168069003;1548.558;32;6;2.5;0.3;1.4;999;2.5025025025025;-0.6062176;1.15;-0.5217446;1.188885;0.4499513;2.036231;0.4030053;2.038629;
637953078176070803;1549.358;32;6;2.5;0.3;1.4;800;3.125;0.6893654;1.621554;0.6118062;1.608889;-0.6062176;1.15;-0.5217446;1.188885;
637953078200053532;1551.757;32;6;2.5;0.3;1.4;2399;1.04210087536474;-0.6893655;1.621553;-0.5781288;1.596163;0.6893654;1.621554;0.6118062;1.608889;
637953078209050827;1552.656;32;6;2.5;0.3;1.4;900;2.77777777777778;0.6062179;1.15;0.6268082;1.192642;-0.6893655;1.621553;-0.5781288;1.596163;
637953078217042625;1553.456;32;6;2.5;0.3;1.4;800;3.125;-0.4499517;2.036231;-0.4560395;1.965901;0.6062179;1.15;0.6268082;1.192642;
637953078241038018;1555.855;32;6;2.5;0.3;1.4;2399;1.04210087536474;0.2394144;0.8422153;0.2369475;0.8403963;-0.4499517;2.036231;-0.4560395;1.965901;
637953078261026018;1557.854;32;6;3.5;0.2;2;1000;3.5;-0.3420197;0.5603072;-0.3223723;0.6269224;0;2.5;-0.03679536;2.508277;
637953078271025995;1558.853;32;6;3.5;0.2;2;999;3.5035035035035;0.6427875;2.266045;0.6732205;2.190225;-0.3420197;0.5603072;-0.3223723;0.6269224;
637953078282134099;1559.964;32;6;3.5;0.2;2;1111;3.15031503150315;-0.8660251;0.9999995;-0.8712433;1.016229;0.6427875;2.266045;0.6732205;2.190225;
637953078290123825;1560.764;32;6;3.5;0.2;2;800;4.375;0.9848077;1.673648;1.04998;1.663553;-0.8660251;0.9999995;-0.8712433;1.016229;
637953078299405765;1561.699;32;6;3.5;0.2;2;936;3.73931623931624;-0.9848078;1.673648;-1.011677;1.581539;0.9848077;1.673648;1.04998;1.663553;
637953078309115909;1562.662;32;6;3.5;0.2;2;963;3.63447559709242;0.8660256;1;0.8177004;0.9764301;-0.9848078;1.673648;-1.011677;1.581539;
637953078318115479;1563.562;32;6;3.5;0.2;2;900;3.88888888888889;-0.6427882;2.266044;-0.5583752;2.221665;0.8660256;1;0.8177004;0.9764301;
637953078338104042;1565.561;32;6;3.5;0.2;2;1999;1.75087543771886;0.3420205;0.5603075;0.3930401;0.5451835;-0.6427882;2.266044;-0.5583752;2.221665;
637953078362089434;1567.96;32;6;4.5;0.1;2.2;1153;3.90286209887251;-0.3762217;0.4663379;-0.3426242;0.4889219;0;2.6;-0.01912867;2.553803;
637953078396187102;1571.37;32;6;4.5;0.1;2.2;3410;1.31964809384164;0.7070663;2.342649;0.699611;2.309874;-0.3762217;0.4663379;-0.3426242;0.4889219;
637953078409520099;1572.71;32;6;4.5;0.1;2.2;1340;3.35820895522388;-0.9526277;0.9499994;-0.9974842;0.9550885;0.7070663;2.342649;0.699611;2.309874;
637953078424223404;1574.173;32;6;4.5;0.1;2.2;1463;3.07587149692413;1.083289;1.691013;1.051022;1.675498;-0.9526277;0.9499994;-0.9974842;0.9550885;
637953078448168790;1576.568;32;6;4.5;0.1;2.2;2394;1.8796992481203;-1.083289;1.691012;-1.094417;1.678033;1.083289;1.691013;1.051022;1.675498;
637953078474154631;1579.166;32;6;4.5;0.1;2.2;2599;1.73143516737207;0.9526281;0.9500003;0.9216911;0.9632193;-1.083289;1.691012;-1.094417;1.678033;
637953078496149577;1581.365;32;6;4.5;0.1;2.2;2199;2.04638472032742;-0.7070671;2.342648;-0.6999973;2.312777;0.9526281;0.9500003;0.9216911;0.9632193;
637953078511132945;1582.865;32;6;4.5;0.1;2.2;1499;3.00200133422282;0.3762226;0.4663382;0.3443126;0.4806166;-0.7070671;2.342648;-0.6999973;2.312777;
637953078546230837;1586.374;32;6;3;0.2;1.4;1199;2.50208507089241;-0.2394138;0.8422151;-0.2351532;0.8796909;0;2.2;-0.02994852;2.12022;
637953078555222858;1587.274;32;6;3;0.2;1.4;899;3.33704115684093;0.4499513;2.036231;0.375801;2.022042;-0.2394138;0.8422151;-0.2351532;0.8796909;
637953078564224881;1588.173;32;6;3;0.2;1.4;900;3.33333333333333;-0.6062176;1.15;-0.6042244;1.137616;0.4499513;2.036231;0.375801;2.022042;
637953078584209371;1590.172;32;6;3;0.2;1.4;1999;1.50075037518759;0.6893654;1.621554;0.6029103;1.609837;-0.6062176;1.15;-0.6042244;1.137616;
637953078605449206;1592.303;32;6;3;0.2;1.4;2131;1.407789770061;-0.6893655;1.621553;-0.7755141;1.63191;0.6893654;1.621554;0.6029103;1.609837;
637953078615199134;1593.271;32;6;3;0.2;1.4;968;3.09917355371901;0.6062179;1.15;0.5238953;1.163858;-0.6893655;1.621553;-0.7755141;1.63191;
637953078623200933;1594.07;32;6;3;0.2;1.4;799;3.75469336670839;-0.4499517;2.036231;-0.4815044;2.058381;0.6062179;1.15;0.5238953;1.163858;
637953078632192952;1594.97;32;6;3;0.2;1.4;900;3.33333333333333;0.2394144;0.8422153;0.1547202;0.8015046;-0.4499517;2.036231;-0.4815044;2.058381;
637953079122531220;1644.004;32;7;4.5;0.1;2.2;1100;4.09090909090909;-0.3762217;0.4663379;-0.3754986;0.5004742;0;2.6;-0.02001068;2.588454;
637953079148517059;1646.603;32;7;4.5;0.1;2.2;2599;1.73143516737207;0.7070663;2.342649;0.6887806;2.337822;-0.3762217;0.4663379;-0.3754986;0.5004742;
637953079169501778;1648.701;32;7;4.5;0.1;2.2;2099;2.14387803716055;-0.9526277;0.9499994;-0.9403306;0.9639342;0.7070663;2.342649;0.6887806;2.337822;
637953079203599444;1652.111;32;7;4.5;0.1;2.2;3410;1.31964809384164;1.083289;1.691013;1.091588;1.656153;-0.9526277;0.9499994;-0.9403306;0.9639342;
637953079215592143;1653.31;32;7;4.5;0.1;2.2;1199;3.75312760633862;-1.083289;1.691012;-1.08949;1.662231;1.083289;1.691013;1.091588;1.656153;
637953079225584387;1654.31;32;7;4.5;0.1;2.2;999;4.5045045045045;0.9526281;0.9500003;0.9762059;0.9901854;-1.083289;1.691012;-1.08949;1.662231;
637953079247589336;1656.51;32;7;4.5;0.1;2.2;2200;2.04545454545455;-0.7070671;2.342648;-0.6991292;2.33758;0.9526281;0.9500003;0.9762059;0.9901854;
637953079260572254;1657.808;32;7;4.5;0.1;2.2;1299;3.46420323325635;0.3762226;0.4663382;0.3494697;0.4801466;-0.7070671;2.342648;-0.6991292;2.33758;
637953079275675649;1659.319;32;7;2.5;0.3;1.4;799;3.12891113892365;-0.2394138;0.8422151;-0.2886049;0.9681413;0;2.2;-0.04850163;2.21596;
637953079290669022;1660.818;32;7;2.5;0.3;1.4;1499;1.66777851901268;0.4499513;2.036231;0.485989;1.975445;-0.2394138;0.8422151;-0.2886049;0.9681413;
637953079308663067;1662.617;32;7;2.5;0.3;1.4;1799;1.38966092273485;-0.6062176;1.15;-0.5333;1.252756;0.4499513;2.036231;0.485989;1.975445;
637953079325766913;1664.327;32;7;2.5;0.3;1.4;1710;1.46198830409357;0.6893654;1.621554;0.6416914;1.618835;-0.6062176;1.15;-0.5333;1.252756;
637953079351752755;1666.926;32;7;2.5;0.3;1.4;2599;0.961908426317814;-0.6893655;1.621553;-0.6675618;1.644819;0.6893654;1.621554;0.6416914;1.618835;
637953079360744777;1667.826;32;7;2.5;0.3;1.4;900;2.77777777777778;0.6062179;1.15;0.5569067;1.206799;-0.6893655;1.621553;-0.6675618;1.644819;
637953079369746801;1668.726;32;7;2.5;0.3;1.4;900;2.77777777777778;-0.4499517;2.036231;-0.4298615;2.050291;0.6062179;1.15;0.5569067;1.206799;
637953079378742785;1669.625;32;7;2.5;0.3;1.4;900;2.77777777777778;0.2394144;0.8422153;0.1199747;0.8681009;-0.4499517;2.036231;-0.4298615;2.050291;
637953079401785012;1671.929;32;7;4;0.1;1.4;1404;2.84900284900285;-0.2394138;0.8422151;-0.2264018;0.8732713;0;2.2;-0.03230868;2.219263;
637953079417972783;1673.555;32;7;4;0.1;1.4;1626;2.460024600246;0.4499513;2.036231;0.4295859;2.081822;-0.2394138;0.8422151;-0.2264018;0.8732713;
637953079430721911;1674.823;32;7;4;0.1;1.4;1268;3.15457413249211;-0.6062176;1.15;-0.5973499;1.195049;0.4499513;2.036231;0.4295859;2.081822;
637953079450823138;1676.833;32;7;4;0.1;1.4;2010;1.99004975124378;0.6893654;1.621554;0.6577209;1.611696;-0.6062176;1.15;-0.5973499;1.195049;
637953079458823582;1677.633;32;7;4;0.1;1.4;800;5;-0.6893655;1.621553;-0.7020811;1.629808;0.6893654;1.621554;0.6577209;1.611696;
637953079480809474;1679.831;32;7;4;0.1;1.4;2198;1.81983621474067;0.6062179;1.15;0.5743433;1.173119;-0.6893655;1.621553;-0.7020811;1.629808;
637953079496796777;1681.431;32;7;4;0.1;1.4;1599;2.50156347717323;-0.4499517;2.036231;-0.4269817;2.054732;0.6062179;1.15;0.5743433;1.173119;
637953079506793618;1682.43;32;7;4;0.1;1.4;1000;4;0.2394144;0.8422153;0.2047354;0.8175325;-0.4499517;2.036231;-0.4269817;2.054732;
637953079533783305;1685.129;32;7;2;0.6;1.8;1999;1.00050025012506;-0.3078177;0.6542765;-0.2744476;0.7328845;0;2.4;0.005442346;2.19193;
637953079542775326;1686.028;32;7;2;0.6;1.8;899;2.22469410456062;0.5785087;2.18944;0.396713;2.066033;-0.3078177;0.6542765;-0.2744476;0.7328845;
637953079560769372;1687.828;32;7;2;0.6;1.8;1799;1.11172873818788;-0.7794226;1.05;-0.7375264;1.129265;0.5785087;2.18944;0.396713;2.066033;
637953079567880966;1688.538;32;7;2;0.6;1.8;711;2.81293952180028;0.8863269;1.656283;0.8340679;1.656596;-0.7794226;1.05;-0.7375264;1.129265;
637953079575872769;1689.338;32;7;2;0.6;1.8;800;2.5;-0.8863271;1.656283;-0.7183833;1.659652;0.8863269;1.656283;0.8340679;1.656596;
637953079584874791;1690.238;32;7;2;0.6;1.8;900;2.22222222222222;0.779423;1.05;0.7045109;1.192727;-0.8863271;1.656283;-0.7183833;1.659652;
637953079592866586;1691.038;32;7;2;0.6;1.8;800;2.5;-0.5785094;2.18944;-0.5578915;2.031882;0.779423;1.05;0.7045109;1.192727;
637953079601858609;1691.937;32;7;2;0.6;1.8;899;2.22469410456062;0.3078185;0.6542768;0.3655579;0.8122802;-0.5785094;2.18944;-0.5578915;2.031882;
637953079625854004;1694.336;32;7;1.5;1.1;2;1000;1.5;-0.3420197;0.5603072;-0.2861179;0.8541552;0;2.5;0.02207931;2.239954;
637953079631855354;1694.936;32;7;1.5;1.1;2;600;2.5;0.6427875;2.266045;0.3968456;2.153364;-0.3420197;0.5603072;-0.2861179;0.8541552;
637953079656030790;1697.346;32;7;1.5;1.1;2;2410;0.622406639004149;-0.8660251;0.9999995;-0.6237802;1.182238;0.6427875;2.266045;0.3968456;2.153364;
637953079665943020;1698.345;32;7;1.5;1.1;2;1000;1.5;0.9848077;1.673648;0.6987929;1.586068;-0.8660251;0.9999995;-0.6237802;1.182238;
637953079673944819;1699.145;32;7;1.5;1.1;2;800;1.875;-0.9848078;1.673648;-0.6607896;1.552158;0.9848077;1.673648;0.6987929;1.586068;
637953079682936838;1700.045;32;7;1.5;1.1;2;899;1.66852057842047;0.8660256;1;0.5820045;1.309478;-0.9848078;1.673648;-0.6607896;1.552158;
637953079690928628;1700.844;32;7;1.5;1.1;2;800;1.875;-0.6427882;2.266044;-0.5075794;1.874324;0.8660256;1;0.5820045;1.309478;
637953079699930659;1701.743;32;7;1.5;1.1;2;899;1.66852057842047;0.3420205;0.5603075;0.1712457;0.859121;-0.6427882;2.266044;-0.5075794;1.874324;
637953079733908297;1705.142;32;7;3.5;0.2;2;2199;1.59163256025466;-0.3420197;0.5603072;-0.359843;0.6002631;0;2.5;-0.02018506;2.445699;
637953079752902569;1707.041;32;7;3.5;0.2;2;1899;1.84307530279094;0.6427875;2.266045;0.5841092;2.190088;-0.3420197;0.5603072;-0.359843;0.6002631;
637953079772897063;1709.04;32;7;3.5;0.2;2;1999;1.75087543771886;-0.8660251;0.9999995;-0.8306568;0.9765759;0.6427875;2.266045;0.5841092;2.190088;
637953079782969328;1710.048;32;7;3.5;0.2;2;1007;3.47567030784508;0.9848077;1.673648;0.9495991;1.677945;-0.8660251;0.9999995;-0.8306568;0.9765759;
637953079801991829;1711.95;32;7;3.5;0.2;2;1902;1.84016824395373;-0.9848078;1.673648;-0.9373958;1.662299;0.9848077;1.673648;0.9495991;1.677945;
637953079811991274;1712.949;32;7;3.5;0.2;2;999;3.5035035035035;0.8660256;1;0.8407804;1.057694;-0.9848078;1.673648;-0.9373958;1.662299;
637953079821983522;1713.949;32;7;3.5;0.2;2;1000;3.5;-0.6427882;2.266044;-0.5679712;2.271968;0.8660256;1;0.8407804;1.057694;
637953079832979416;1715.049;32;7;3.5;0.2;2;1099;3.18471337579618;0.3420205;0.5603075;0.2999319;0.6045136;-0.6427882;2.266044;-0.5679712;2.271968;
637953079853965895;1717.148;32;7;3;0.2;1.4;1199;2.50208507089241;-0.2394138;0.8422151;-0.2330574;0.9259015;0;2.2;0.02026635;2.211786;
637953079862967917;1718.047;32;7;3;0.2;1.4;900;3.33333333333333;0.4499513;2.036231;0.4390413;2.107606;-0.2394138;0.8422151;-0.2330574;0.9259015;
637953079880011750;1719.752;32;7;3;0.2;1.4;1704;1.76056338028169;-0.6062176;1.15;-0.5469249;1.176093;0.4499513;2.036231;0.4390413;2.107606;
637953079887233365;1720.482;32;7;3;0.2;1.4;730;4.10958904109589;0.6893654;1.621554;0.7751184;1.643898;-0.6062176;1.15;-0.5469249;1.176093;
637953079893954882;1721.146;32;7;3;0.2;1.4;664;4.51807228915663;-0.6893655;1.621553;-0.7299009;1.579011;0.6893654;1.621554;0.7751184;1.643898;
637953079901946681;1721.945;32;7;3;0.2;1.4;799;3.75469336670839;0.6062179;1.15;0.5441927;1.093999;-0.6893655;1.621553;-0.7299009;1.579011;
637953079906947804;1722.446;32;7;3;0.2;1.4;500;6;-0.4499517;2.036231;-0.3775605;2.032359;0.6062179;1.15;0.5441927;1.093999;
637953079915939828;1723.345;32;7;3;0.2;1.4;899;3.33704115684093;0.2394144;0.8422153;0.2172381;0.7810372;-0.4499517;2.036231;-0.3775605;2.032359;
