637953153049845241;305.4618;33;0;2.5;0.3;1.4;1899;1.31648235913639;-0.2394138;0.8422151;-0.2223387;0.9033121;0;2.2;-0.03422273;2.084951;
637953153060837715;306.5611;33;0;2.5;0.3;1.4;1099;2.27479526842584;0.4499513;2.036231;0.412195;2.010244;-0.2394138;0.8422151;-0.2223387;0.9033121;
637953153096815802;310.1595;33;0;2.5;0.3;1.4;3598;0.694830461367426;-0.6062176;1.15;-0.5350831;1.177461;0.4499513;2.036231;0.412195;2.010244;
637953153130913466;313.5692;33;0;2.5;0.3;1.4;3410;0.733137829912023;0.6893654;1.621554;0.5897972;1.622272;-0.6062176;1.15;-0.5350831;1.177461;
637953153139915492;314.469;33;0;2.5;0.3;1.4;900;2.77777777777778;-0.6893655;1.621553;-0.6099306;1.637375;0.6893654;1.621554;0.5897972;1.622272;
637953153151898185;315.668;33;0;2.5;0.3;1.4;1199;2.08507089241034;0.6062179;1.15;0.5913882;1.150572;-0.6893655;1.621553;-0.6099306;1.637375;
637953153159899983;316.4676;33;0;2.5;0.3;1.4;800;3.125;-0.4499517;2.036231;-0.3727946;1.969202;0.6062179;1.15;0.5913882;1.150572;
637953153168896236;317.3675;33;0;2.5;0.3;1.4;900;2.77777777777778;0.2394144;0.8422153;0.09972121;0.8873614;-0.4499517;2.036231;-0.3727946;1.969202;
637953153215873735;322.0649;33;0;3;0.2;1.4;3598;0.833796553640912;-0.2394138;0.8422151;-0.2019785;0.8971233;0;2.2;0.007266245;2.14718;
637953153246969020;325.1747;33;0;3;0.2;1.4;3110;0.964630225080386;0.4499513;2.036231;0.4274735;2.007061;-0.2394138;0.8422151;-0.2019785;0.8971233;
637953153287948234;329.2729;33;0;3;0.2;1.4;4098;0.732064421669107;-0.6062176;1.15;-0.5571883;1.135691;0.4499513;2.036231;0.4274735;2.007061;
637953153299950934;330.4727;33;0;3;0.2;1.4;1200;2.5;0.6893654;1.621554;0.6204649;1.586824;-0.6062176;1.15;-0.5571883;1.135691;
637953153310943403;331.5717;33;0;3;0.2;1.4;1099;2.72975432211101;-0.6893655;1.621553;-0.6208783;1.595324;0.6893654;1.621554;0.6204649;1.586824;
637953153322936101;332.7709;33;0;3;0.2;1.4;1199;2.50208507089241;0.6062179;1.15;0.5685868;1.151478;-0.6893655;1.621553;-0.6208783;1.595324;
637953153332928350;333.771;33;0;3;0.2;1.4;1000;3;-0.4499517;2.036231;-0.4173552;2.071518;0.6062179;1.15;0.5685868;1.151478;
637953153345921270;335.0702;33;0;3;0.2;1.4;1299;2.3094688221709;0.2394144;0.8422153;0.1818063;0.8837377;-0.4499517;2.036231;-0.4173552;2.071518;
637953153362915089;336.7693;33;0;1.5;1.1;2;900;1.66666666666667;-0.3420197;0.5603072;-0.3292728;1.034733;0;2.5;0.002317413;2.452251;
637953153370906886;337.569;33;0;1.5;1.1;2;800;1.875;0.6427875;2.266045;0.3455209;1.925182;-0.3420197;0.5603072;-0.3292728;1.034733;
637953153391901608;339.668;33;0;1.5;1.1;2;2099;0.714626012386851;-0.8660251;0.9999995;-0.4824203;1.279556;0.6427875;2.266045;0.3455209;1.925182;
637953153398943191;340.3722;33;0;1.5;1.1;2;704;2.13068181818182;0.9848077;1.673648;0.6661575;1.613914;-0.8660251;0.9999995;-0.4824203;1.279556;
637953153409005447;341.3784;33;0;1.5;1.1;2;1006;1.49105367793241;-0.9848078;1.673648;-0.5464922;1.627955;0.9848077;1.673648;0.6661575;1.613914;
637953153418997699;342.3779;33;0;1.5;1.1;2;999;1.5015015015015;0.8660256;1;0.7331946;1.194194;-0.9848078;1.673648;-0.5464922;1.627955;
637953153426999498;343.1776;33;0;1.5;1.1;2;800;1.875;-0.6427882;2.266044;-0.4353365;2.098478;0.8660256;1;0.7331946;1.194194;
637953153438992194;344.377;33;0;1.5;1.1;2;1199;1.25104253544621;0.3420205;0.5603075;0.06932251;0.9008763;-0.6427882;2.266044;-0.4353365;2.098478;
637953153477970962;348.2749;33;0;4.5;0.1;2.2;2698;1.66790214974055;-0.3762217;0.4663379;-0.3694963;0.4513758;0;2.6;-0.006510927;2.553855;
637953153499955903;350.4738;33;0;4.5;0.1;2.2;2199;2.04638472032742;0.7070663;2.342649;0.6763002;2.338882;-0.3762217;0.4663379;-0.3694963;0.4513758;
637953153518952107;352.373;33;0;4.5;0.1;2.2;1899;2.3696682464455;-0.9526277;0.9499994;-0.9214016;0.9301361;0.7070663;2.342649;0.6763002;2.338882;
637953153544047750;354.8829;33;0;4.5;0.1;2.2;2510;1.79282868525896;1.083289;1.691013;1.037176;1.672679;-0.9526277;0.9499994;-0.9214016;0.9301361;
637953153574041484;357.882;33;0;4.5;0.1;2.2;2999;1.50050016672224;-1.083289;1.691012;-1.079921;1.69188;1.083289;1.691013;1.037176;1.672679;
637953153613021731;361.7798;33;0;4.5;0.1;2.2;3898;1.15443817342227;0.9526281;0.9500003;0.9295624;0.9671812;-1.083289;1.691012;-1.079921;1.69188;
637953153640122494;364.4898;33;0;4.5;0.1;2.2;2710;1.66051660516605;-0.7070671;2.342648;-0.6870192;2.30326;0.9526281;0.9500003;0.9295624;0.9671812;
637953153659116758;366.389;33;0;4.5;0.1;2.2;1899;2.3696682464455;0.3762226;0.4663382;0.3896315;0.4896239;-0.7070671;2.342648;-0.6870192;2.30326;
637953153679151260;368.3928;33;0;2;0.6;1.8;1004;1.99203187250996;-0.3078177;0.6542765;-0.3197441;0.799391;0;2.4;-0.004372735;2.241333;
637953153690093726;369.4874;33;0;2;0.6;1.8;1095;1.82648401826484;0.5785087;2.18944;0.5352348;2.108332;-0.3078177;0.6542765;-0.3197441;0.799391;
637953153700085973;370.4868;33;0;2;0.6;1.8;999;2.002002002002;-0.7794226;1.05;-0.648218;1.138681;0.5785087;2.18944;0.5352348;2.108332;
637953153711088446;371.5866;33;0;2;0.6;1.8;1100;1.81818181818182;0.8863269;1.656283;0.7686468;1.588872;-0.7794226;1.05;-0.648218;1.138681;
637953153721080691;372.5862;33;0;2;0.6;1.8;1000;2;-0.8863271;1.656283;-0.7844013;1.64625;0.8863269;1.656283;0.7686468;1.588872;
637953153731082943;373.5858;33;0;2;0.6;1.8;1000;2;0.779423;1.05;0.7747253;1.141982;-0.8863271;1.656283;-0.7844013;1.64625;
637953153740074964;374.4852;33;0;2;0.6;1.8;899;2.22469410456062;-0.5785094;2.18944;-0.5787296;2.072426;0.779423;1.05;0.7747253;1.141982;
637953153749177009;375.3958;33;0;2;0.6;1.8;911;2.1953896816685;0.3078185;0.6542768;0.2340638;0.7422266;-0.5785094;2.18944;-0.5787296;2.072426;
637953153788135769;379.2914;33;0;3.5;0.2;2;1197;2.92397660818713;-0.3420197;0.5603072;-0.3059959;0.6211251;0;2.5;-0.00345619;2.490294;
637953153825144088;382.9922;33;0;3.5;0.2;2;3701;0.94569035395839;0.6427875;2.266045;0.5853332;2.192031;-0.3420197;0.5603072;-0.3059959;0.6211251;
637953153838137010;384.2918;33;0;3.5;0.2;2;1300;2.69230769230769;-0.8660251;0.9999995;-0.7886538;1.020293;0.6427875;2.266045;0.5853332;2.192031;
637953153850129708;385.4912;33;0;3.5;0.2;2;1199;2.91909924937448;0.9848077;1.673648;0.9160228;1.661218;-0.8660251;0.9999995;-0.7886538;1.020293;
637953153861122182;386.5904;33;0;3.5;0.2;2;1099;3.18471337579618;-0.9848078;1.673648;-0.8955261;1.653868;0.9848077;1.673648;0.9160228;1.661218;
637953153875125329;387.9899;33;0;3.5;0.2;2;1400;2.5;0.8660256;1;0.7946177;1.046914;-0.9848078;1.673648;-0.8955261;1.653868;
637953153887228053;389.2006;33;0;3.5;0.2;2;1211;2.89017341040462;-0.6427882;2.266044;-0.6477695;2.240824;0.8660256;1;0.7946177;1.046914;
637953153900220972;390.5001;33;0;3.5;0.2;2;1300;2.69230769230769;0.3420205;0.5603075;0.3060641;0.6238717;-0.6427882;2.266044;-0.6477695;2.240824;
637953153927209690;393.1984;33;0;4;0.1;1.4;1499;2.66844563042028;-0.2394138;0.8422151;-0.2165156;0.8352647;0;2.2;-0.01896682;2.167777;
637953153943203285;394.798;33;0;4;0.1;1.4;1600;2.5;0.4499513;2.036231;0.4819784;1.997843;-0.2394138;0.8422151;-0.2165156;0.8352647;
637953153970301644;397.5078;33;0;4;0.1;1.4;2710;1.4760147601476;-0.6062176;1.15;-0.5653346;1.174155;0.4499513;2.036231;0.4819784;1.997843;
637953153995288509;400.0066;33;0;4;0.1;1.4;2499;1.60064025610244;0.6893654;1.621554;0.6729686;1.607226;-0.6062176;1.15;-0.5653346;1.174155;
637953154014282779;401.9058;33;0;4;0.1;1.4;1899;2.10637177461822;-0.6893655;1.621553;-0.656607;1.633811;0.6893654;1.621554;0.6729686;1.607226;
637953154028275926;403.305;33;0;4;0.1;1.4;1399;2.85918513223731;0.6062179;1.15;0.5618503;1.172709;-0.6893655;1.621553;-0.656607;1.633811;
637953154049260644;405.4041;33;0;4;0.1;1.4;2099;1.90566936636494;-0.4499517;2.036231;-0.4359168;2.02316;0.6062179;1.15;0.5618503;1.172709;
637953154069365163;407.4142;33;0;4;0.1;1.4;2010;1.99004975124378;0.2394144;0.8422153;0.2203607;0.8592489;-0.4499517;2.036231;-0.4359168;2.02316;
637953155252693235;525.7482;33;1;2;0.6;1.8;800;2.5;-0.3078177;0.6542765;-0.2893906;0.8934754;0;2.4;0.009644787;2.274662;
637953155259684808;526.4477;33;1;2;0.6;1.8;699;2.86123032904149;0.5785087;2.18944;0.4071638;2.03621;-0.3078177;0.6542765;-0.2893906;0.8934754;
637953155268676832;527.3473;33;1;2;0.6;1.8;900;2.22222222222222;-0.7794226;1.05;-0.6325894;1.161688;0.5785087;2.18944;0.4071638;2.03621;
637953155276678631;528.1467;33;1;2;0.6;1.8;799;2.50312891113892;0.8863269;1.656283;0.6558154;1.688795;-0.7794226;1.05;-0.6325894;1.161688;
637953155285670652;529.0461;33;1;2;0.6;1.8;899;2.22469410456062;-0.8863271;1.656283;-0.7774122;1.65695;0.8863269;1.656283;0.6558154;1.688795;
637953155299663796;530.4458;33;1;2;0.6;1.8;1400;1.42857142857143;0.779423;1.05;0.6340812;1.063842;-0.8863271;1.656283;-0.7774122;1.65695;
637953155310666272;531.5453;33;1;2;0.6;1.8;1099;1.81983621474067;-0.5785094;2.18944;-0.4197427;2.100883;0.779423;1.05;0.6340812;1.063842;
637953155318668073;532.3459;33;1;2;0.6;1.8;801;2.49687890137328;0.3078185;0.6542768;0.1798149;0.8725554;-0.5785094;2.18944;-0.4197427;2.100883;
637953155334651664;533.9443;33;1;1.5;1.1;2;800;1.875;-0.3420197;0.5603072;-0.228008;1.098358;0;2.5;0.03042699;2.313175;
637953155342643462;534.744;33;1;1.5;1.1;2;800;1.875;0.6427875;2.266045;0.308289;1.891033;-0.3420197;0.5603072;-0.228008;1.098358;
637953155351645482;535.6436;33;1;1.5;1.1;2;900;1.66666666666667;-0.8660251;0.9999995;-0.5814522;1.257613;0.6427875;2.266045;0.308289;1.891033;
637953155360651721;536.5438;33;1;1.5;1.1;2;900;1.66666666666667;0.9848077;1.673648;0.662992;1.56851;-0.8660251;0.9999995;-0.5814522;1.257613;
637953155369632447;537.4424;33;1;1.5;1.1;2;899;1.66852057842047;-0.9848078;1.673648;-0.6159784;1.677009;0.9848077;1.673648;0.662992;1.56851;
637953155377741966;538.2532;33;1;1.5;1.1;2;811;1.84956843403206;0.8660256;1;0.4045082;1.250957;-0.9848078;1.673648;-0.6159784;1.677009;
637953155386732696;539.1526;33;1;1.5;1.1;2;899;1.66852057842047;-0.6427882;2.266044;-0.3152058;2.127104;0.8660256;1;0.4045082;1.250957;
637953155393734269;539.8525;33;1;1.5;1.1;2;700;2.14285714285714;0.3420205;0.5603075;0.1376773;1.021573;-0.6427882;2.266044;-0.3152058;2.127104;
637953155449819134;545.4614;33;1;4.5;0.1;2.2;2210;2.03619909502262;-0.3762217;0.4663379;-0.3573737;0.4665656;0;2.6;-0.0001182179;2.572945;
637953155477805429;548.2596;33;1;4.5;0.1;2.2;2798;1.60829163688349;0.7070663;2.342649;0.6892374;2.307711;-0.3762217;0.4663379;-0.3573737;0.4665656;
637953155496799693;550.1591;33;1;4.5;0.1;2.2;1899;2.3696682464455;-0.9526277;0.9499994;-0.9067445;0.9596931;0.7070663;2.342649;0.6892374;2.307711;
637953155520785091;552.5578;33;1;4.5;0.1;2.2;2399;1.87578157565652;1.083289;1.691013;1.058821;1.705348;-0.9526277;0.9499994;-0.9067445;0.9596931;
637953155537828920;554.2621;33;1;4.5;0.1;2.2;1704;2.64084507042254;-1.083289;1.691012;-1.034174;1.691165;1.083289;1.691013;1.058821;1.705348;
637953155551882083;555.6675;33;1;4.5;0.1;2.2;1405;3.20284697508897;0.9526281;0.9500003;0.9252918;0.9710625;-1.083289;1.691012;-1.034174;1.691165;
637953155572876802;557.7668;33;1;4.5;0.1;2.2;2099;2.14387803716055;-0.7070671;2.342648;-0.7092073;2.318434;0.9526281;0.9500003;0.9252918;0.9710625;
637953155589860621;559.4655;33;1;4.5;0.1;2.2;1699;2.64861683343143;0.3762226;0.4663382;0.3932902;0.4875102;-0.7070671;2.342648;-0.7092073;2.318434;
637953155620867592;562.5654;33;1;2.5;0.3;1.4;2100;1.19047619047619;-0.2394138;0.8422151;-0.2016399;0.912266;0;2.2;0.02732552;2.178573;
637953155662827024;566.7621;33;1;2.5;0.3;1.4;4197;0.595663569216107;0.4499513;2.036231;0.4281772;2.02742;-0.2394138;0.8422151;-0.2016399;0.912266;
637953155673819496;567.8616;33;1;2.5;0.3;1.4;1099;2.27479526842584;-0.6062176;1.15;-0.5597975;1.187693;0.4499513;2.036231;0.4281772;2.02742;
637953155685822196;569.0616;33;1;2.5;0.3;1.4;1200;2.08333333333333;0.6893654;1.621554;0.5627179;1.598793;-0.6062176;1.15;-0.5597975;1.187693;
637953155695814447;570.0609;33;1;2.5;0.3;1.4;999;2.5025025025025;-0.6893655;1.621553;-0.7195817;1.625463;0.6893654;1.621554;0.5627179;1.598793;
637953155706926942;571.1716;33;1;2.5;0.3;1.4;1111;2.25022502250225;0.6062179;1.15;0.5345799;1.157258;-0.6893655;1.621553;-0.7195817;1.625463;
637953155717919413;572.2708;33;1;2.5;0.3;1.4;1099;2.27479526842584;-0.4499517;2.036231;-0.3706681;1.981773;0.6062179;1.15;0.5345799;1.157258;
637953155730907383;573.5704;33;1;2.5;0.3;1.4;1300;1.92307692307692;0.2394144;0.8422153;0.2036846;0.9294753;-0.4499517;2.036231;-0.3706681;1.981773;
637953155768002412;577.2797;33;1;4;0.1;1.4;1610;2.48447204968944;-0.2394138;0.8422151;-0.2203411;0.8642493;0;2.2;0.004131394;2.185216;
637953155785046274;578.9836;33;1;4;0.1;1.4;1704;2.34741784037559;0.4499513;2.036231;0.4019292;2.023386;-0.2394138;0.8422151;-0.2203411;0.8642493;
637953155803989380;580.8782;33;1;4;0.1;1.4;1895;2.11081794195251;-0.6062176;1.15;-0.5749534;1.159383;0.4499513;2.036231;0.4019292;2.023386;
637953155820987174;582.5771;33;1;4;0.1;1.4;1699;2.35432607416127;0.6893654;1.621554;0.7173648;1.625931;-0.6062176;1.15;-0.5749534;1.159383;
637953155843976718;584.8763;33;1;4;0.1;1.4;2299;1.73988690735102;-0.6893655;1.621553;-0.6687169;1.615017;0.6893654;1.621554;0.7173648;1.625931;
637953155865958558;587.075;33;1;4;0.1;1.4;2199;1.81900864029104;0.6062179;1.15;0.6015306;1.166878;-0.6893655;1.621553;-0.6687169;1.615017;
637953155887943503;589.274;33;1;4;0.1;1.4;2199;1.81900864029104;-0.4499517;2.036231;-0.4318981;2.030658;0.6062179;1.15;0.6015306;1.166878;
637953155904937321;590.9731;33;1;4;0.1;1.4;1699;2.35432607416127;0.2394144;0.8422153;0.2302933;0.8700715;-0.4499517;2.036231;-0.4318981;2.030658;
637953155931043193;593.5834;33;1;3.5;0.2;2;1311;2.6697177726926;-0.3420197;0.5603072;-0.2929231;0.6338998;0;2.5;0.01753341;2.506459;
637953155954088375;595.8874;33;1;3.5;0.2;2;2304;1.51909722222222;0.6427875;2.266045;0.5940773;2.237532;-0.3420197;0.5603072;-0.2929231;0.6338998;
637953155978063763;598.2857;33;1;3.5;0.2;2;2398;1.45954962468724;-0.8660251;0.9999995;-0.8193012;0.9522454;0.6427875;2.266045;0.5940773;2.237532;
637953155991016675;599.5806;33;1;3.5;0.2;2;1295;2.7027027027027;0.9848077;1.673648;0.8906428;1.654296;-0.8660251;0.9999995;-0.8193012;0.9522454;
637953156005009822;600.98;33;1;3.5;0.2;2;1399;2.50178699070765;-0.9848078;1.673648;-0.9271258;1.67199;0.9848077;1.673648;0.8906428;1.654296;
637953156023994091;602.8791;33;1;3.5;0.2;2;1899;1.84307530279094;0.8660256;1;0.8911238;0.9777419;-0.9848078;1.673648;-0.9271258;1.67199;
637953156037987231;604.278;33;1;3.5;0.2;2;1399;2.50178699070765;-0.6427882;2.266044;-0.612592;2.21281;0.8660256;1;0.8911238;0.9777419;
637953156051990385;605.678;33;1;3.5;0.2;2;1400;2.5;0.3420205;0.5603075;0.2709866;0.5964886;-0.6427882;2.266044;-0.612592;2.21281;
637953156075975783;608.0765;33;1;3;0.2;1.4;1099;2.72975432211101;-0.2394138;0.8422151;-0.1887017;0.9015517;0;2.2;-0.001839587;2.122218;
637953156149048902;615.3845;33;1;3;0.2;1.4;7308;0.410509031198686;0.4499513;2.036231;0.4323075;2.017101;-0.2394138;0.8422151;-0.1887017;0.9015517;
637953156161051600;616.5837;33;1;3;0.2;1.4;1199;2.50208507089241;-0.6062176;1.15;-0.5446493;1.142407;0.4499513;2.036231;0.4323075;2.017101;
637953156173044295;617.7831;33;1;3;0.2;1.4;1199;2.50208507089241;0.6893654;1.621554;0.6552014;1.592864;-0.6062176;1.15;-0.5446493;1.142407;
637953156185035230;618.9824;33;1;3;0.2;1.4;1199;2.50208507089241;-0.6893655;1.621553;-0.5938926;1.63605;0.6893654;1.621554;0.6552014;1.592864;
637953156208025340;621.2816;33;1;3;0.2;1.4;2299;1.30491518051327;0.6062179;1.15;0.585339;1.206931;-0.6893655;1.621553;-0.5938926;1.63605;
637953156222018487;622.6807;33;1;3;0.2;1.4;1399;2.14438884917798;-0.4499517;2.036231;-0.3762526;1.992835;0.6062179;1.15;0.585339;1.206931;
637953156289093570;629.3886;33;1;3;0.2;1.4;6708;0.447227191413238;0.2394144;0.8422153;0.1977673;0.9109917;-0.4499517;2.036231;-0.3762526;1.992835;
637953156950361981;695.5136;33;2;3.5;0.2;2;1610;2.17391304347826;-0.3420197;0.5603072;-0.3439512;0.6119139;0;2.5;0.03109587;2.436196;
637953156966675650;697.1525;33;2;3.5;0.2;2;1639;2.13544844417328;0.6427875;2.266045;0.5574386;2.215858;-0.3420197;0.5603072;-0.3439512;0.6119139;
637953156985339847;699.0123;33;2;3.5;0.2;2;1860;1.88172043010753;-0.8660251;0.9999995;-0.7748443;0.9859328;0.6427875;2.266045;0.5574386;2.215858;
637953156997322539;700.2112;33;2;3.5;0.2;2;1199;2.91909924937448;0.9848077;1.673648;1.011416;1.639944;-0.8660251;0.9999995;-0.7748443;0.9859328;
637953157009315236;701.4108;33;2;3.5;0.2;2;1200;2.91666666666667;-0.9848078;1.673648;-1.014965;1.619444;0.9848077;1.673648;1.011416;1.639944;
637953157026304128;703.1102;33;2;3.5;0.2;2;1699;2.06003531489111;0.8660256;1;0.8232269;1.007612;-0.9848078;1.673648;-1.014965;1.619444;
637953157039303180;704.4094;33;2;3.5;0.2;2;1299;2.69438029253272;-0.6427882;2.266044;-0.5879984;2.199706;0.8660256;1;0.8232269;1.007612;
637953157057407248;706.2198;33;2;3.5;0.2;2;1810;1.93370165745856;0.3420205;0.5603075;0.3621409;0.5639424;-0.6427882;2.266044;-0.5879984;2.199706;
637953157093391190;709.8182;33;2;4.5;0.1;2.2;1400;3.21428571428571;-0.3762217;0.4663379;-0.3365304;0.4964054;0;2.6;0.01675094;2.577655;
637953157134370397;713.916;33;2;4.5;0.1;2.2;4098;1.09809663250366;0.7070663;2.342649;0.6683891;2.310973;-0.3762217;0.4663379;-0.3365304;0.4964054;
637953157171458739;717.6256;33;2;4.5;0.1;2.2;3710;1.21293800539084;-0.9526277;0.9499994;-0.9350142;0.9180883;0.7070663;2.342649;0.6683891;2.310973;
637953157191453237;719.6248;33;2;4.5;0.1;2.2;1999;2.25112556278139;1.083289;1.691013;1.072242;1.692287;-0.9526277;0.9499994;-0.9350142;0.9180883;
637953157205446382;721.0239;33;2;4.5;0.1;2.2;1399;3.21658327376698;-1.083289;1.691012;-1.036013;1.691751;1.083289;1.691013;1.072242;1.692287;
637953157227431325;723.2228;33;2;4.5;0.1;2.2;2199;2.04638472032742;0.9526281;0.9500003;0.9304867;0.9661635;-1.083289;1.691012;-1.036013;1.691751;
637953157275412116;728.0204;33;2;4.5;0.1;2.2;4798;0.937890787828262;-0.7070671;2.342648;-0.7123514;2.337637;0.9526281;0.9500003;0.9304867;0.9661635;
637953157292485954;729.7197;33;2;4.5;0.1;2.2;1699;2.64861683343143;0.3762226;0.4663382;0.3471044;0.4878817;-0.7070671;2.342648;-0.7123514;2.337637;
637953157327503824;733.2292;33;2;4;0.1;1.4;1699;2.35432607416127;-0.2394138;0.8422151;-0.2163372;0.886111;0;2.2;0.001745184;2.164374;
637953157348498546;735.3285;33;2;4;0.1;1.4;2099;1.90566936636494;0.4499513;2.036231;0.4253929;2.020721;-0.2394138;0.8422151;-0.2163372;0.886111;
637953157369483265;737.4277;33;2;4;0.1;1.4;2099;1.90566936636494;-0.6062176;1.15;-0.5955099;1.152746;0.4499513;2.036231;0.4253929;2.020721;
637953157393468036;739.8265;33;2;4;0.1;1.4;2399;1.66736140058358;0.6893654;1.621554;0.660267;1.60907;-0.6062176;1.15;-0.5955099;1.152746;
637953157415463298;742.0253;33;2;4;0.1;1.4;2199;1.81900864029104;-0.6893655;1.621553;-0.6532269;1.624125;0.6893654;1.621554;0.660267;1.60907;
637953157437453526;744.2243;33;2;4;0.1;1.4;2199;1.81900864029104;0.6062179;1.15;0.6157904;1.145917;-0.6893655;1.621553;-0.6532269;1.624125;
637953157458557305;746.3345;33;2;4;0.1;1.4;2110;1.8957345971564;-0.4499517;2.036231;-0.4399657;2.024502;0.6062179;1.15;0.6157904;1.145917;
637953157476541345;748.1338;33;2;4;0.1;1.4;1799;2.22345747637576;0.2394144;0.8422153;0.2430042;0.8485632;-0.4499517;2.036231;-0.4399657;2.024502;
637953157496535841;750.1329;33;2;2;0.6;1.8;1000;2;-0.3078177;0.6542765;-0.2268574;0.8600193;0;2.4;0.008946451;2.193029;
637953157507578317;751.2339;33;2;2;0.6;1.8;989;2.02224469160768;0.5785087;2.18944;0.4427706;2.15624;-0.3078177;0.6542765;-0.2268574;0.8600193;
637953157517550569;752.2324;33;2;2;0.6;1.8;998;2.00400801603206;-0.7794226;1.05;-0.7332494;1.10297;0.5785087;2.18944;0.4427706;2.15624;
637953157528513030;753.331;33;2;2;0.6;1.8;1099;1.81983621474067;0.8863269;1.656283;0.8853992;1.588984;-0.7794226;1.05;-0.7332494;1.10297;
637953157539515505;754.4304;33;2;2;0.6;1.8;1099;1.81983621474067;-0.8863271;1.656283;-0.7358093;1.673784;0.8863269;1.656283;0.8853992;1.588984;
637953157549507752;755.4301;33;2;2;0.6;1.8;1000;2;0.779423;1.05;0.6923792;1.201957;-0.8863271;1.656283;-0.7358093;1.673784;
637953157559510001;756.4297;33;2;2;0.6;1.8;1000;2;-0.5785094;2.18944;-0.4994193;2.087286;0.779423;1.05;0.6923792;1.201957;
637953157570612497;757.5405;33;2;2;0.6;1.8;1111;1.8001800180018;0.3078185;0.6542768;0.2434802;0.751936;-0.5785094;2.18944;-0.4994193;2.087286;
637953157597488541;760.228;33;2;3;0.2;1.4;1400;2.14285714285714;-0.2394138;0.8422151;-0.185297;0.9141387;0;2.2;-0.006541306;2.126752;
637953157617593060;762.2382;33;2;3;0.2;1.4;2010;1.49253731343284;0.4499513;2.036231;0.3860922;2.001033;-0.2394138;0.8422151;-0.185297;0.9141387;
637953157630575976;763.5372;33;2;3;0.2;1.4;1299;2.3094688221709;-0.6062176;1.15;-0.5757765;1.208873;0.4499513;2.036231;0.3860922;2.001033;
637953157643578903;764.8369;33;2;3;0.2;1.4;1300;2.30769230769231;0.6893654;1.621554;0.5979678;1.615758;-0.6062176;1.15;-0.5757765;1.208873;
637953157657572048;766.2363;33;2;3;0.2;1.4;1399;2.14438884917798;-0.6893655;1.621553;-0.6736072;1.651856;0.6893654;1.621554;0.5979678;1.615758;
637953157672565419;767.7356;33;2;3;0.2;1.4;1499;2.00133422281521;0.6062179;1.15;0.5675935;1.174674;-0.6893655;1.621553;-0.6736072;1.651856;
637953157691549684;769.6345;33;2;3;0.2;1.4;1899;1.57977883096367;-0.4499517;2.036231;-0.3946579;2.026689;0.6062179;1.15;0.5675935;1.174674;
637953157704542606;770.9339;33;2;3;0.2;1.4;1299;2.3094688221709;0.2394144;0.8422153;0.1835937;0.8918912;-0.4499517;2.036231;-0.3946579;2.026689;
637953157733533944;773.8324;33;2;2.5;0.3;1.4;1399;1.78699070764832;-0.2394138;0.8422151;-0.23934;0.9042929;0;2.2;-0.03230141;2.067552;
637953157745528238;775.0319;33;2;2.5;0.3;1.4;1200;2.08333333333333;0.4499513;2.036231;0.4294456;2.153758;-0.2394138;0.8422151;-0.23934;0.9042929;
637953157758521165;776.3315;33;2;2.5;0.3;1.4;1300;1.92307692307692;-0.6062176;1.15;-0.5106421;1.158181;0.4499513;2.036231;0.4294456;2.153758;
637953157778624311;778.3418;33;2;2.5;0.3;1.4;2010;1.24378109452736;0.6893654;1.621554;0.6245868;1.656808;-0.6062176;1.15;-0.5106421;1.158181;
637953157799616024;780.4406;33;2;2.5;0.3;1.4;2099;1.19104335397808;-0.6893655;1.621553;-0.5960851;1.61261;0.6893654;1.621554;0.6245868;1.656808;
637953157812608945;781.7401;33;2;2.5;0.3;1.4;1299;1.92455735180908;0.6062179;1.15;0.5349213;1.214002;-0.6893655;1.621553;-0.5960851;1.61261;
637953157824611642;782.94;33;2;2.5;0.3;1.4;1200;2.08333333333333;-0.4499517;2.036231;-0.4253483;1.933879;0.6062179;1.15;0.5349213;1.214002;
637953157836594337;784.1388;33;2;2.5;0.3;1.4;1199;2.08507089241034;0.2394144;0.8422153;0.2294221;0.9535383;-0.4499517;2.036231;-0.4253483;1.933879;
637953157852587933;785.7382;33;2;1.5;1.1;2;899;1.66852057842047;-0.3420197;0.5603072;-0.3138233;0.9606661;0;2.5;-0.1147837;2.347572;
637953157860579729;786.5378;33;2;1.5;1.1;2;800;1.875;0.6427875;2.266045;0.3531354;2.12503;-0.3420197;0.5603072;-0.3138233;0.9606661;
637953157868581531;787.3374;33;2;1.5;1.1;2;800;1.875;-0.8660251;0.9999995;-0.7239291;1.282691;0.6427875;2.266045;0.3531354;2.12503;
637953157876583327;788.1375;33;2;1.5;1.1;2;800;1.875;0.9848077;1.673648;0.6692685;1.692405;-0.8660251;0.9999995;-0.7239291;1.282691;
637953157886625583;789.1418;33;2;1.5;1.1;2;1004;1.49402390438247;-0.9848078;1.673648;-0.6779744;1.746088;0.9848077;1.673648;0.6692685;1.692405;
637953157908670542;791.3465;33;2;1.5;1.1;2;2205;0.680272108843537;0.8660256;1;0.6242069;1.184819;-0.9848078;1.673648;-0.6779744;1.746088;
637953157918672795;792.3463;33;2;1.5;1.1;2;1000;1.5;-0.6427882;2.266044;-0.4695411;2.136395;0.8660256;1;0.6242069;1.184819;
637953157927664813;793.2458;33;2;1.5;1.1;2;899;1.66852057842047;0.3420205;0.5603075;0.2234684;1.026757;-0.6427882;2.266044;-0.4695411;2.136395;
637953158456932137;846.1706;33;3;1.5;1.1;2;804;1.86567164179104;-0.3420197;0.5603072;-0.2771584;0.964673;0;2.5;0.04682038;2.129104;
637953158463883694;846.8657;33;3;1.5;1.1;2;695;2.15827338129496;0.6427875;2.266045;0.3917614;2.106051;-0.3420197;0.5603072;-0.2771584;0.964673;
637953158471927708;847.6701;33;3;1.5;1.1;2;804;1.86567164179104;-0.8660251;0.9999995;-0.6233338;1.252364;0.6427875;2.266045;0.3917614;2.106051;
637953158479918789;848.4697;33;3;1.5;1.1;2;800;1.875;0.9848077;1.673648;0.7931935;1.708833;-0.8660251;0.9999995;-0.6233338;1.252364;
637953158487873363;849.2648;33;3;1.5;1.1;2;795;1.88679245283019;-0.9848078;1.673648;-0.7301835;1.772572;0.9848077;1.673648;0.7931935;1.708833;
637953158497855551;850.2638;33;3;1.5;1.1;2;999;1.5015015015015;0.8660256;1;0.7054952;1.359451;-0.9848078;1.673648;-0.7301835;1.772572;
637953158506967593;851.1748;33;3;1.5;1.1;2;911;1.64654226125137;-0.6427882;2.266044;-0.5661878;1.999048;0.8660256;1;0.7054952;1.359451;
637953158514909375;851.968;33;3;1.5;1.1;2;793;1.89155107187894;0.3420205;0.5603075;0.08857708;0.9493029;-0.6427882;2.266044;-0.5661878;1.999048;
637953158545956359;855.0731;33;3;3.5;0.2;2;1699;2.06003531489111;-0.3420197;0.5603072;-0.3225305;0.6222467;0;2.5;0.02433511;2.434461;
637953158556948829;856.1724;33;3;3.5;0.2;2;1099;3.18471337579618;0.6427875;2.266045;0.6634673;2.287388;-0.3420197;0.5603072;-0.3225305;0.6222467;
637953158572932425;857.7714;33;3;3.5;0.2;2;1599;2.18886804252658;-0.8660251;0.9999995;-0.8070008;1.051301;0.6427875;2.266045;0.6634673;2.287388;
637953158584935121;858.9709;33;3;3.5;0.2;2;1200;2.91666666666667;0.9848077;1.673648;0.9819264;1.661508;-0.8660251;0.9999995;-0.8070008;1.051301;
637953158597928043;860.2703;33;3;3.5;0.2;2;1299;2.69438029253272;-0.9848078;1.673648;-0.9197001;1.649851;0.9848077;1.673648;0.9819264;1.661508;
637953158610920966;861.5698;33;3;3.5;0.2;2;1299;2.69438029253272;0.8660256;1;0.7802501;1.010768;-0.9848078;1.673648;-0.9197001;1.649851;
637953158626914562;863.1689;33;3;3.5;0.2;2;1599;2.18886804252658;-0.6427882;2.266044;-0.5950338;2.217362;0.8660256;1;0.7802501;1.010768;
637953158641907932;864.6685;33;3;3.5;0.2;2;1500;2.33333333333333;0.3420205;0.5603075;0.3022958;0.5793405;-0.6427882;2.266044;-0.5950338;2.217362;
637953158659011778;866.3787;33;3;2;0.6;1.8;811;2.46609124537608;-0.3078177;0.6542765;-0.277564;0.8540533;0;2.4;0.02612481;2.215822;
637953158669004024;867.3782;33;3;2;0.6;1.8;1000;2;0.5785087;2.18944;0.5934917;2.253206;-0.3078177;0.6542765;-0.277564;0.8540533;
637953158678936262;868.3715;33;3;2;0.6;1.8;993;2.01409869083585;-0.7794226;1.05;-0.6665868;1.159092;0.5785087;2.18944;0.5934917;2.253206;
637953158687988295;869.2772;33;3;2;0.6;1.8;906;2.2075055187638;0.8863269;1.656283;0.7412573;1.654463;-0.7794226;1.05;-0.6665868;1.159092;
637953158696990320;870.1769;33;3;2;0.6;1.8;900;2.22222222222222;-0.8863271;1.656283;-0.8490349;1.725696;0.8863269;1.656283;0.7412573;1.654463;
637953158705932330;871.0704;33;3;2;0.6;1.8;893;2.23964165733483;0.779423;1.05;0.5325499;1.191036;-0.8863271;1.656283;-0.8490349;1.725696;
637953158752962902;875.7741;33;3;2;0.6;1.8;4704;0.425170068027211;-0.5785094;2.18944;-0.566149;1.954401;0.779423;1.05;0.5325499;1.191036;
637953158763955374;876.8738;33;3;2;0.6;1.8;1100;1.81818181818182;0.3078185;0.6542768;0.1984311;0.7785643;-0.5785094;2.18944;-0.566149;1.954401;
637953158805047249;880.9828;33;3;4.5;0.1;2.2;1999;2.25112556278139;-0.3762217;0.4663379;-0.3549363;0.506202;0;2.6;-4.432071E-05;2.637947;
637953158828032451;883.2816;33;3;4.5;0.1;2.2;2299;1.9573727707699;0.7070663;2.342649;0.6854346;2.341749;-0.3762217;0.4663379;-0.3549363;0.506202;
637953158848026284;885.2808;33;3;4.5;0.1;2.2;1999;2.25112556278139;-0.9526277;0.9499994;-0.9424531;0.9725765;0.7070663;2.342649;0.6854346;2.341749;
637953158873024227;887.7798;33;3;4.5;0.1;2.2;2499;1.80072028811525;1.083289;1.691013;1.102774;1.696644;-0.9526277;0.9499994;-0.9424531;0.9725765;
637953158901120547;890.5896;33;3;4.5;0.1;2.2;2810;1.60142348754448;-1.083289;1.691012;-1.059456;1.686008;1.083289;1.691013;1.102774;1.696644;
637953158923195508;892.7975;33;3;4.5;0.1;2.2;2208;2.03804347826087;0.9526281;0.9500003;0.9671725;0.9704355;-1.083289;1.691012;-1.059456;1.686008;
637953158942089760;894.6875;33;3;4.5;0.1;2.2;1890;2.38095238095238;-0.7070671;2.342648;-0.6863178;2.297157;0.9526281;0.9500003;0.9671725;0.9704355;
637953158961094031;896.587;33;3;4.5;0.1;2.2;1900;2.36842105263158;0.3762226;0.4663382;0.3563482;0.4940609;-0.7070671;2.342648;-0.6863178;2.297157;
637953158987079870;899.1859;33;3;2.5;0.3;1.4;1300;1.92307692307692;-0.2394138;0.8422151;-0.2179597;0.9580988;0;2.2;-0.007599911;2.18792;
637953158999072568;900.3854;33;3;2.5;0.3;1.4;1199;2.08507089241034;0.4499513;2.036231;0.4040933;1.954074;-0.2394138;0.8422151;-0.2179597;0.9580988;
637953159015076165;901.9849;33;3;2.5;0.3;1.4;1599;1.56347717323327;-0.6062176;1.15;-0.5156404;1.254609;0.4499513;2.036231;0.4040933;1.954074;
637953159040111791;904.4887;33;3;2.5;0.3;1.4;2504;0.998402555910543;0.6893654;1.621554;0.5763318;1.663799;-0.6062176;1.15;-0.5156404;1.254609;
637953159056165408;906.0938;33;3;2.5;0.3;1.4;1605;1.55763239875389;-0.6893655;1.621553;-0.5394788;1.622895;0.6893654;1.621554;0.5763318;1.663799;
637953159073149222;907.793;33;3;2.5;0.3;1.4;1699;1.47145379635079;0.6062179;1.15;0.5110211;1.177234;-0.6893655;1.621553;-0.5394788;1.622895;
637953159093133718;909.7916;33;3;2.5;0.3;1.4;1999;1.25062531265633;-0.4499517;2.036231;-0.4626219;2.075111;0.6062179;1.15;0.5110211;1.177234;
637953159108127087;911.2908;33;3;2.5;0.3;1.4;1499;1.66777851901268;0.2394144;0.8422153;0.1825556;0.9023572;-0.4499517;2.036231;-0.4626219;2.075111;
637953159140124279;914.4898;33;3;4;0.1;1.4;1999;2.00100050025012;-0.2394138;0.8422151;-0.230924;0.8239777;0;2.2;-0.03750463;2.194058;
637953159166108423;917.0885;33;3;4;0.1;1.4;2599;1.5390534821085;0.4499513;2.036231;0.4326864;2.025102;-0.2394138;0.8422151;-0.230924;0.8239777;
637953159186092918;919.0875;33;3;4;0.1;1.4;1999;2.00100050025012;-0.6062176;1.15;-0.6039156;1.168631;0.4499513;2.036231;0.4326864;2.025102;
637953159210188336;921.4973;33;3;4;0.1;1.4;2410;1.6597510373444;0.6893654;1.621554;0.6813042;1.624456;-0.6062176;1.15;-0.6039156;1.168631;
637953159225188439;922.9966;33;3;4;0.1;1.4;1499;2.66844563042028;-0.6893655;1.621553;-0.6578683;1.618586;0.6893654;1.621554;0.6813042;1.624456;
637953159242182259;924.6959;33;3;4;0.1;1.4;1699;2.35432607416127;0.6062179;1.15;0.5682256;1.162211;-0.6893655;1.621553;-0.6578683;1.618586;
637953159302245761;930.7014;33;3;4;0.1;1.4;6006;0.666000666000666;-0.4499517;2.036231;-0.4568558;2.046987;0.6062179;1.15;0.5682256;1.162211;
637953159339254081;934.403;33;3;4;0.1;1.4;3701;1.08078897595245;0.2394144;0.8422153;0.2238392;0.8448639;-0.4499517;2.036231;-0.4568558;2.046987;
637953159367290386;937.2062;33;3;3;0.2;1.4;1404;2.13675213675214;-0.2394138;0.8422151;-0.229166;0.8891054;0;2.2;0.03705791;2.14855;
637953159385334441;939.0112;33;3;3;0.2;1.4;1805;1.66204986149584;0.4499513;2.036231;0.3975411;2.033416;-0.2394138;0.8422151;-0.229166;0.8891054;
637953159405328936;941.0103;33;3;3;0.2;1.4;1999;1.50075037518759;-0.6062176;1.15;-0.57035;1.163364;0.4499513;2.036231;0.3975411;2.033416;
637953159419322086;942.41;33;3;3;0.2;1.4;1400;2.14285714285714;0.6893654;1.621554;0.6297248;1.613755;-0.6062176;1.15;-0.57035;1.163364;
637953159440306801;944.509;33;3;3;0.2;1.4;2099;1.4292520247737;-0.6893655;1.621553;-0.672195;1.672557;0.6893654;1.621554;0.6297248;1.613755;
637953159459301074;946.4079;33;3;3;0.2;1.4;1899;1.57977883096367;0.6062179;1.15;0.5795318;1.186948;-0.6893655;1.621553;-0.672195;1.672557;
637953159476294897;948.1072;33;3;3;0.2;1.4;1699;1.76574455562095;-0.4499517;2.036231;-0.414586;2.012495;0.6062179;1.15;0.5795318;1.186948;
637953159500390310;950.5175;33;3;3;0.2;1.4;2410;1.2448132780083;0.2394144;0.8422153;0.2043292;0.9117564;-0.4499517;2.036231;-0.414586;2.012495;
637953160627858240;1063.265;33;4;4.5;0.1;2.2;1510;2.98013245033113;-0.3762217;0.4663379;-0.3742392;0.4598634;0;2.6;-0.0143322;2.57424;
637953160654848742;1065.963;33;4;4.5;0.1;2.2;2699;1.66728417932568;0.7070663;2.342649;0.7195328;2.346612;-0.3762217;0.4663379;-0.3742392;0.4598634;
637953160669842116;1067.463;33;4;4.5;0.1;2.2;1500;3;-0.9526277;0.9499994;-0.9119934;0.9485162;0.7070663;2.342649;0.7195328;2.346612;
637953160688826379;1069.362;33;4;4.5;0.1;2.2;1899;2.3696682464455;1.083289;1.691013;1.118779;1.694386;-0.9526277;0.9499994;-0.9119934;0.9485162;
637953160702819521;1070.761;33;4;4.5;0.1;2.2;1399;3.21658327376698;-1.083289;1.691012;-1.047239;1.699245;1.083289;1.691013;1.118779;1.694386;
637953160717812892;1072.261;33;4;4.5;0.1;2.2;1500;3;0.9526281;0.9500003;0.9840648;0.9481646;-1.083289;1.691012;-1.047239;1.699245;
637953160754801213;1075.959;33;4;4.5;0.1;2.2;3698;1.21687398593835;-0.7070671;2.342648;-0.7118665;2.296336;0.9526281;0.9500003;0.9840648;0.9481646;
637953160771785029;1077.658;33;4;4.5;0.1;2.2;1699;2.64861683343143;0.3762226;0.4663382;0.3419623;0.4601101;-0.7070671;2.342648;-0.7118665;2.296336;
637953160787898654;1079.269;33;4;2;0.6;1.8;700;2.85714285714286;-0.3078177;0.6542765;-0.3078263;0.8850186;0;2.4;0.008749252;2.274009;
637953160810883817;1081.568;33;4;2;0.6;1.8;2299;0.869943453675511;0.5785087;2.18944;0.3599667;2.147777;-0.3078177;0.6542765;-0.3078263;0.8850186;
637953160820876067;1082.567;33;4;2;0.6;1.8;999;2.002002002002;-0.7794226;1.05;-0.8349479;1.159505;0.5785087;2.18944;0.3599667;2.147777;
637953160829918099;1083.471;33;4;2;0.6;1.8;904;2.21238938053097;0.8863269;1.656283;0.7967173;1.658654;-0.7794226;1.05;-0.8349479;1.159505;
637953160837869888;1084.266;33;4;2;0.6;1.8;795;2.51572327044025;-0.8863271;1.656283;-0.7972689;1.591736;0.8863269;1.656283;0.7967173;1.658654;
637953160846861907;1085.166;33;4;2;0.6;1.8;899;2.22469410456062;0.779423;1.05;0.6925825;1.104218;-0.8863271;1.656283;-0.7972689;1.591736;
637953160856864158;1086.166;33;4;2;0.6;1.8;1000;2;-0.5785094;2.18944;-0.4579505;2.150037;0.779423;1.05;0.6925825;1.104218;
637953160865856178;1087.065;33;4;2;0.6;1.8;899;2.22469410456062;0.3078185;0.6542768;0.1816954;0.9014108;-0.5785094;2.18944;-0.4579505;2.150037;
637953160888901360;1089.369;33;4;3;0.2;1.4;1305;2.29885057471264;-0.2394138;0.8422151;-0.1964579;0.9197613;0;2.2;-0.09526101;2.172444;
637953160918942582;1092.374;33;4;3;0.2;1.4;3005;0.998336106489185;0.4499513;2.036231;0.3987876;1.980929;-0.2394138;0.8422151;-0.1964579;0.9197613;
637953160929935053;1093.473;33;4;3;0.2;1.4;1099;2.72975432211101;-0.6062176;1.15;-0.6149124;1.160974;0.4499513;2.036231;0.3987876;1.980929;
637953160940927563;1094.572;33;4;3;0.2;1.4;1099;2.72975432211101;0.6893654;1.621554;0.7080576;1.633439;-0.6062176;1.15;-0.6149124;1.160974;
637953160965919856;1097.072;33;4;3;0.2;1.4;2499;1.20048019207683;-0.6893655;1.621553;-0.6639875;1.640572;0.6893654;1.621554;0.7080576;1.633439;
637953160980913231;1098.57;33;4;3;0.2;1.4;1499;2.00133422281521;0.6062179;1.15;0.540104;1.157631;-0.6893655;1.621553;-0.6639875;1.640572;
637953160994906374;1099.97;33;4;3;0.2;1.4;1399;2.14438884917798;-0.4499517;2.036231;-0.4141006;2.067704;0.6062179;1.15;0.540104;1.157631;
637953161007009094;1101.18;33;4;3;0.2;1.4;1211;2.47729149463254;0.2394144;0.8422153;0.1913182;0.8434795;-0.4499517;2.036231;-0.4141006;2.067704;
637953161034045175;1103.884;33;4;4;0.1;1.4;1411;2.83486888731396;-0.2394138;0.8422151;-0.2348149;0.889648;0;2.2;0.01126003;2.219112;
637953161051989202;1105.678;33;4;4;0.1;1.4;1794;2.22965440356745;0.4499513;2.036231;0.4454651;2.060189;-0.2394138;0.8422151;-0.2348149;0.889648;
637953161066982581;1107.177;33;4;4;0.1;1.4;1499;2.66844563042028;-0.6062176;1.15;-0.5742189;1.175894;0.4499513;2.036231;0.4454651;2.060189;
637953161079975506;1108.477;33;4;4;0.1;1.4;1300;3.07692307692308;0.6893654;1.621554;0.6692703;1.620207;-0.6062176;1.15;-0.5742189;1.175894;
637953161096969322;1110.176;33;4;4;0.1;1.4;1699;2.35432607416127;-0.6893655;1.621553;-0.6752647;1.614009;0.6893654;1.621554;0.6692703;1.620207;
637953161113202971;1111.807;33;4;4;0.1;1.4;1630;2.45398773006135;0.6062179;1.15;0.558348;1.158703;-0.6893655;1.621553;-0.6752647;1.614009;
637953161131066989;1113.586;33;4;4;0.1;1.4;1780;2.24719101123596;-0.4499517;2.036231;-0.4194999;2.002188;0.6062179;1.15;0.558348;1.158703;
637953161149101042;1115.39;33;4;4;0.1;1.4;1803;2.21852468108708;0.2394144;0.8422153;0.2483698;0.8384283;-0.4499517;2.036231;-0.4194999;2.002188;
637953161166044852;1117.084;33;4;1.5;1.1;2;895;1.67597765363128;-0.3420197;0.5603072;-0.3209459;1.002859;0;2.5;0.06922713;2.276273;
637953161172046201;1117.684;33;4;1.5;1.1;2;600;2.5;0.6427875;2.266045;0.4718476;2.073262;-0.3420197;0.5603072;-0.3209459;1.002859;
637953161179047775;1118.384;33;4;1.5;1.1;2;700;2.14285714285714;-0.8660251;0.9999995;-0.6751411;1.278109;0.6427875;2.266045;0.4718476;2.073262;
637953161186039348;1119.083;33;4;1.5;1.1;2;699;2.14592274678112;0.9848077;1.673648;0.6236409;1.527717;-0.8660251;0.9999995;-0.6751411;1.278109;
637953161193030919;1119.783;33;4;1.5;1.1;2;700;2.14285714285714;-0.9848078;1.673648;-0.5151303;1.656493;0.9848077;1.673648;0.6236409;1.527717;
637953161205033619;1120.982;33;4;1.5;1.1;2;1200;1.25;0.8660256;1;0.4480291;0.9996783;-0.9848078;1.673648;-0.5151303;1.656493;
637953161224067896;1122.886;33;4;1.5;1.1;2;1904;0.78781512605042;-0.6427882;2.266044;-0.2974977;2.008157;0.8660256;1;0.4480291;0.9996783;
637953161235020362;1123.981;33;4;1.5;1.1;2;1095;1.36986301369863;0.3420205;0.5603075;0.1455019;0.9951919;-0.6427882;2.266044;-0.2974977;2.008157;
637953161264001455;1126.88;33;4;3.5;0.2;2;1594;2.19573400250941;-0.3420197;0.5603072;-0.3208629;0.6159528;0;2.5;-0.02148905;2.45829;
637953161279107866;1128.39;33;4;3.5;0.2;2;1510;2.31788079470199;0.6427875;2.266045;0.5673855;2.222404;-0.3420197;0.5603072;-0.3208629;0.6159528;
637953161308098765;1131.289;33;4;3.5;0.2;2;2899;1.20731286650569;-0.8660251;0.9999995;-0.8160637;1.008778;0.6427875;2.266045;0.5673855;2.222404;
637953161328085208;1133.288;33;4;3.5;0.2;2;1999;1.75087543771886;0.9848077;1.673648;0.9011758;1.6895;-0.8660251;0.9999995;-0.8160637;1.008778;
637953161343078573;1134.787;33;4;3.5;0.2;2;1500;2.33333333333333;-0.9848078;1.673648;-0.9499792;1.688802;0.9848077;1.673648;0.9011758;1.6895;
637953161363073073;1136.786;33;4;3.5;0.2;2;1999;1.75087543771886;0.8660256;1;0.8197757;1.008073;-0.9848078;1.673648;-0.9499792;1.688802;
637953161377116230;1138.191;33;4;3.5;0.2;2;1404;2.49287749287749;-0.6427882;2.266044;-0.6046418;2.22639;0.8660256;1;0.8197757;1.008073;
637953161393099827;1139.79;33;4;3.5;0.2;2;1599;2.18886804252658;0.3420205;0.5603075;0.3273919;0.5956141;-0.6427882;2.266044;-0.6046418;2.22639;
637953161410043633;1141.484;33;4;2.5;0.3;1.4;800;3.125;-0.2394138;0.8422151;-0.2477882;0.9869167;0;2.2;0.01432472;2.134901;
637953161425037008;1142.983;33;4;2.5;0.3;1.4;1499;1.66777851901268;0.4499513;2.036231;0.3795638;1.977657;-0.2394138;0.8422151;-0.2477882;0.9869167;
637953161436199514;1144.099;33;4;2.5;0.3;1.4;1116;2.24014336917563;-0.6062176;1.15;-0.5177189;1.244915;0.4499513;2.036231;0.3795638;1.977657;
637953161446141751;1145.093;33;4;2.5;0.3;1.4;994;2.51509054325956;0.6893654;1.621554;0.6949402;1.606431;-0.6062176;1.15;-0.5177189;1.244915;
637953161456144000;1146.093;33;4;2.5;0.3;1.4;1000;2.5;-0.6893655;1.621553;-0.6750889;1.662624;0.6893654;1.621554;0.6949402;1.606431;
637953161468176706;1147.297;33;4;2.5;0.3;1.4;1204;2.07641196013289;0.6062179;1.15;0.5192987;1.248025;-0.6893655;1.621553;-0.6750889;1.662624;
637953161479129166;1148.392;33;4;2.5;0.3;1.4;1095;2.28310502283105;-0.4499517;2.036231;-0.4639952;1.959758;0.6062179;1.15;0.5192987;1.248025;
637953161492172100;1149.696;33;4;2.5;0.3;1.4;1304;1.91717791411043;0.2394144;0.8422153;0.1933744;0.9551774;-0.4499517;2.036231;-0.4639952;1.959758;
637953162034329081;1203.91;33;5;3;0.2;1.4;1199;2.50208507089241;-0.2394138;0.8422151;-0.2279421;0.9193553;0;2.2;-0.03621633;2.134797;
637953162045321552;1205.01;33;5;3;0.2;1.4;1100;2.72727272727273;0.4499513;2.036231;0.3753935;1.969724;-0.2394138;0.8422151;-0.2279421;0.9193553;
637953162056314021;1206.109;33;5;3;0.2;1.4;1099;2.72975432211101;-0.6062176;1.15;-0.552236;1.13792;0.4499513;2.036231;0.3753935;1.969724;
637953162066306272;1207.109;33;5;3;0.2;1.4;999;3.003003003003;0.6893654;1.621554;0.6133804;1.561474;-0.6062176;1.15;-0.552236;1.13792;
637953162076358528;1208.114;33;5;3;0.2;1.4;1005;2.98507462686567;-0.6893655;1.621553;-0.6057266;1.580311;0.6893654;1.621554;0.6133804;1.561474;
637953162086420789;1209.12;33;5;3;0.2;1.4;1006;2.98210735586481;0.6062179;1.15;0.5500674;1.152879;-0.6893655;1.621553;-0.6057266;1.580311;
637953162099413713;1210.419;33;5;3;0.2;1.4;1299;2.3094688221709;-0.4499517;2.036231;-0.3880875;2.030292;0.6062179;1.15;0.5500674;1.152879;
637953162114457096;1211.923;33;5;3;0.2;1.4;1504;1.99468085106383;0.2394144;0.8422153;0.2091706;0.9013656;-0.4499517;2.036231;-0.3880875;2.030292;
637953162143383600;1214.816;33;5;4;0.1;1.4;1399;2.85918513223731;-0.2394138;0.8422151;-0.2292659;0.861396;0;2.2;8.118711E-05;2.172129;
637953162159367192;1216.416;33;5;4;0.1;1.4;1600;2.5;0.4499513;2.036231;0.4174068;2.018849;-0.2394138;0.8422151;-0.2292659;0.861396;
637953162185353036;1219.014;33;5;4;0.1;1.4;2599;1.5390534821085;-0.6062176;1.15;-0.5634676;1.17555;0.4499513;2.036231;0.4174068;2.018849;
637953162199346180;1220.414;33;5;4;0.1;1.4;1400;2.85714285714286;0.6893654;1.621554;0.6782624;1.589743;-0.6062176;1.15;-0.5634676;1.17555;
637953162213499360;1221.829;33;5;4;0.1;1.4;1415;2.82685512367491;-0.6893655;1.621553;-0.6415883;1.608963;0.6893654;1.621554;0.6782624;1.589743;
637953162233443845;1223.823;33;5;4;0.1;1.4;1994;2.00601805416249;0.6062179;1.15;0.5963246;1.166528;-0.6893655;1.621553;-0.6415883;1.608963;
637953162261480148;1226.627;33;5;4;0.1;1.4;2804;1.4265335235378;-0.4499517;2.036231;-0.4540704;1.999601;0.6062179;1.15;0.5963246;1.166528;
637953162284415305;1228.921;33;5;4;0.1;1.4;2293;1.74443959877889;0.2394144;0.8422153;0.2373346;0.8632116;-0.4499517;2.036231;-0.4540704;1.999601;
637953162310403507;1231.52;33;5;1.5;1.1;2;1299;1.15473441108545;-0.3420197;0.5603072;-0.2908742;0.9887782;0;2.5;-0.009309255;2.28752;
637953162319405527;1232.419;33;5;1.5;1.1;2;899;1.66852057842047;0.6427875;2.266045;0.3378416;2.116555;-0.3420197;0.5603072;-0.2908742;0.9887782;
637953162328397549;1233.319;33;5;1.5;1.1;2;900;1.66666666666667;-0.8660251;0.9999995;-0.5335544;1.288945;0.6427875;2.266045;0.3378416;2.116555;
637953162337549605;1234.234;33;5;1.5;1.1;2;915;1.63934426229508;0.9848077;1.673648;0.4468721;1.576947;-0.8660251;0.9999995;-0.5335544;1.288945;
637953162344500358;1234.929;33;5;1.5;1.1;2;695;2.15827338129496;-0.9848078;1.673648;-0.6384673;1.7454;0.9848077;1.673648;0.4468721;1.576947;
637953162353502237;1235.829;33;5;1.5;1.1;2;900;1.66666666666667;0.8660256;1;0.527364;1.272661;-0.9848078;1.673648;-0.6384673;1.7454;
637953162362496803;1236.729;33;5;1.5;1.1;2;900;1.66666666666667;-0.6427882;2.266044;-0.3318237;2.008966;0.8660256;1;0.527364;1.272661;
637953162370488381;1237.528;33;5;1.5;1.1;2;800;1.875;0.3420205;0.5603075;0.09410398;0.9451559;-0.6427882;2.266044;-0.3318237;2.008966;
637953162409467143;1241.426;33;5;2.5;0.3;1.4;1299;1.92455735180908;-0.2394138;0.8422151;-0.169518;0.9289868;0;2.2;-0.02907164;2.110599;
637953162423470291;1242.826;33;5;2.5;0.3;1.4;1400;1.78571428571429;0.4499513;2.036231;0.4051398;2.049821;-0.2394138;0.8422151;-0.169518;0.9289868;
637953162434512775;1243.93;33;5;2.5;0.3;1.4;1104;2.26449275362319;-0.6062176;1.15;-0.4939911;1.210188;0.4499513;2.036231;0.4051398;2.049821;
637953162444455012;1244.925;33;5;2.5;0.3;1.4;995;2.51256281407035;0.6893654;1.621554;0.6753111;1.650556;-0.6062176;1.15;-0.4939911;1.210188;
637953162454447255;1245.924;33;5;2.5;0.3;1.4;1000;2.5;-0.6893655;1.621553;-0.6450583;1.643219;0.6893654;1.621554;0.6753111;1.650556;
637953162481553350;1248.634;33;5;2.5;0.3;1.4;2710;0.922509225092251;0.6062179;1.15;0.5714317;1.176159;-0.6893655;1.621553;-0.6450583;1.643219;
637953162492535819;1249.733;33;5;2.5;0.3;1.4;1099;2.27479526842584;-0.4499517;2.036231;-0.41715;1.965016;0.6062179;1.15;0.5714317;1.176159;
637953162501537844;1250.633;33;5;2.5;0.3;1.4;900;2.77777777777778;0.2394144;0.8422153;0.1984635;0.9235324;-0.4499517;2.036231;-0.41715;1.965016;
637953162529524128;1253.432;33;5;3.5;0.2;2;1694;2.06611570247934;-0.3420197;0.5603072;-0.3134339;0.6058775;0;2.5;-0.009138256;2.505806;
637953162545517729;1255.031;33;5;3.5;0.2;2;1599;2.18886804252658;0.6427875;2.266045;0.5837938;2.262244;-0.3420197;0.5603072;-0.3134339;0.6058775;
637953162559510878;1256.43;33;5;3.5;0.2;2;1399;2.50178699070765;-0.8660251;0.9999995;-0.8365551;1.058747;0.6427875;2.266045;0.5837938;2.262244;
637953162572503792;1257.73;33;5;3.5;0.2;2;1300;2.69230769230769;0.9848077;1.673648;0.9647914;1.630387;-0.8660251;0.9999995;-0.8365551;1.058747;
637953162584496493;1258.929;33;5;3.5;0.2;2;1200;2.91666666666667;-0.9848078;1.673648;-0.9181604;1.659057;0.9848077;1.673648;0.9647914;1.630387;
637953162595538980;1260.034;33;5;3.5;0.2;2;1104;3.17028985507246;0.8660256;1;0.8012024;0.9964824;-0.9848078;1.673648;-0.9181604;1.659057;
637953162606491441;1261.128;33;5;3.5;0.2;2;1095;3.19634703196347;-0.6427882;2.266044;-0.6038216;2.199346;0.8660256;1;0.8012024;0.9964824;
637953162618494137;1262.328;33;5;3.5;0.2;2;1200;2.91666666666667;0.3420205;0.5603075;0.3314908;0.6509686;-0.6427882;2.266044;-0.6038216;2.199346;
637953162636588209;1264.138;33;5;2;0.6;1.8;811;2.46609124537608;-0.3078177;0.6542765;-0.2646909;0.7403992;0;2.4;0.04604355;2.237194;
637953162645580228;1265.037;33;5;2;0.6;1.8;899;2.22469410456062;0.5785087;2.18944;0.4463738;2.167825;-0.3078177;0.6542765;-0.2646909;0.7403992;
637953162653572023;1265.837;33;5;2;0.6;1.8;800;2.5;-0.7794226;1.05;-0.8401709;1.082014;0.5785087;2.18944;0.4463738;2.167825;
637953162663571681;1266.837;33;5;2;0.6;1.8;1000;2;0.8863269;1.656283;0.7701484;1.617088;-0.7794226;1.05;-0.8401709;1.082014;
637953162671569815;1267.636;33;5;2;0.6;1.8;800;2.5;-0.8863271;1.656283;-0.7093411;1.656107;0.8863269;1.656283;0.7701484;1.617088;
637953162680561836;1268.536;33;5;2;0.6;1.8;900;2.22222222222222;0.779423;1.05;0.6600963;1.1941;-0.8863271;1.656283;-0.7093411;1.656107;
637953162689673883;1269.446;33;5;2;0.6;1.8;911;2.1953896816685;-0.5785094;2.18944;-0.432749;2.185785;0.779423;1.05;0.6600963;1.1941;
637953162697675683;1270.247;33;5;2;0.6;1.8;801;2.49687890137328;0.3078185;0.6542768;0.1086962;0.862806;-0.5785094;2.18944;-0.432749;2.185785;
637953162749650888;1275.444;33;5;4.5;0.1;2.2;2099;2.14387803716055;-0.3762217;0.4663379;-0.3561183;0.4616412;0;2.6;-0.007241357;2.553436;
637953162768635157;1277.343;33;5;4.5;0.1;2.2;1899;2.3696682464455;0.7070663;2.342649;0.7131103;2.335428;-0.3762217;0.4663379;-0.3561183;0.4616412;
637953162787629437;1279.242;33;5;4.5;0.1;2.2;1900;2.36842105263158;-0.9526277;0.9499994;-0.9071324;0.9562496;0.7070663;2.342649;0.7131103;2.335428;
637953162804623260;1280.941;33;5;4.5;0.1;2.2;1699;2.64861683343143;1.083289;1.691013;1.107679;1.703428;-0.9526277;0.9499994;-0.9071324;0.9562496;
637953162819616625;1282.441;33;5;4.5;0.1;2.2;1499;3.00200133422282;-1.083289;1.691012;-1.034429;1.690137;1.083289;1.691013;1.107679;1.703428;
637953162835710242;1284.051;33;5;4.5;0.1;2.2;1610;2.79503105590062;0.9526281;0.9500003;0.9256342;0.9915531;-1.083289;1.691012;-1.034429;1.690137;
637953162849713395;1285.45;33;5;4.5;0.1;2.2;1399;3.21658327376698;-0.7070671;2.342648;-0.673353;2.327078;0.9526281;0.9500003;0.9256342;0.9915531;
637953162866707214;1287.15;33;5;4.5;0.1;2.2;1700;2.64705882352941;0.3762226;0.4663382;0.366122;0.4885074;-0.7070671;2.342648;-0.673353;2.327078;
637953163374804144;1337.959;33;6;4.5;0.1;2.2;1799;2.50138966092273;-0.3762217;0.4663379;-0.3799891;0.4803109;0;2.6;0.009850865;2.560327;
637953163399789807;1340.458;33;6;4.5;0.1;2.2;2499;1.80072028811525;0.7070663;2.342649;0.6881257;2.314406;-0.3762217;0.4663379;-0.3799891;0.4803109;
637953163428889722;1343.368;33;6;4.5;0.1;2.2;2910;1.54639175257732;-0.9526277;0.9499994;-0.9520044;0.9243864;0.7070663;2.342649;0.6881257;2.314406;
637953163448874209;1345.367;33;6;4.5;0.1;2.2;1999;2.25112556278139;1.083289;1.691013;1.118598;1.709993;-0.9526277;0.9499994;-0.9520044;0.9243864;
637953163484862306;1348.965;33;6;4.5;0.1;2.2;3598;1.25069483046137;-1.083289;1.691012;-1.041222;1.680726;1.083289;1.691013;1.118598;1.709993;
637953163511848376;1351.664;33;6;4.5;0.1;2.2;2699;1.66728417932568;0.9526281;0.9500003;0.9434213;0.9750043;-1.083289;1.691012;-1.041222;1.680726;
637953163528842195;1353.363;33;6;4.5;0.1;2.2;1700;2.64705882352941;-0.7070671;2.342648;-0.7132977;2.293851;0.9526281;0.9500003;0.9434213;0.9750043;
637953163557938737;1356.273;33;6;4.5;0.1;2.2;2910;1.54639175257732;0.3762226;0.4663382;0.3825176;0.4713026;-0.7070671;2.342648;-0.7132977;2.293851;
637953163579923677;1358.472;33;6;3;0.2;1.4;1100;2.72727272727273;-0.2394138;0.8422151;-0.1886942;0.9068898;0;2.2;0.02322145;2.207552;
637953163589915925;1359.471;33;6;3;0.2;1.4;999;3.003003003003;0.4499513;2.036231;0.3556541;2.027071;-0.2394138;0.8422151;-0.1886942;0.9068898;
637953163608910199;1361.37;33;6;3;0.2;1.4;1899;1.57977883096367;-0.6062176;1.15;-0.5536731;1.139891;0.4499513;2.036231;0.3556541;2.027071;
637953163630955151;1363.575;33;6;3;0.2;1.4;2204;1.36116152450091;0.6893654;1.621554;0.641712;1.637073;-0.6062176;1.15;-0.5536731;1.139891;
637953163646948749;1365.174;33;6;3;0.2;1.4;1599;1.87617260787993;-0.6893655;1.621553;-0.6086168;1.583151;0.6893654;1.621554;0.641712;1.637073;
637953163661882104;1366.668;33;6;3;0.2;1.4;1494;2.00803212851406;0.6062179;1.15;0.510145;1.171045;-0.6893655;1.621553;-0.6086168;1.583151;
637953163674885030;1367.968;33;6;3;0.2;1.4;1300;2.30769230769231;-0.4499517;2.036231;-0.37847;1.999039;0.6062179;1.15;0.510145;1.171045;
637953163686987750;1369.178;33;6;3;0.2;1.4;1210;2.47933884297521;0.2394144;0.8422153;0.2333673;0.8344271;-0.4499517;2.036231;-0.37847;1.999039;
637953163704978321;1370.977;33;6;2;0.6;1.8;900;2.22222222222222;-0.3078177;0.6542765;-0.2458727;0.82833;0;2.4;0.117632;2.407203;
637953163714987163;1371.978;33;6;2;0.6;1.8;1000;2;0.5785087;2.18944;0.3174115;2.118137;-0.3078177;0.6542765;-0.2458727;0.82833;
637953163725969634;1373.076;33;6;2;0.6;1.8;1098;1.82149362477231;-0.7794226;1.05;-0.5619393;1.209609;0.5785087;2.18944;0.3174115;2.118137;
637953163735961877;1374.076;33;6;2;0.6;1.8;1000;2;0.8863269;1.656283;0.6637959;1.670669;-0.7794226;1.05;-0.5619393;1.209609;
637953163746014136;1375.08;33;6;2;0.6;1.8;1005;1.99004975124378;-0.8863271;1.656283;-0.7991481;1.72539;0.8863269;1.656283;0.6637959;1.670669;
637953163756069240;1376.086;33;6;2;0.6;1.8;1006;1.98807157057654;0.779423;1.05;0.6788179;1.167215;-0.8863271;1.656283;-0.7991481;1.72539;
637953163766062141;1377.085;33;6;2;0.6;1.8;999;2.002002002002;-0.5785094;2.18944;-0.4966613;2.194567;0.779423;1.05;0.6788179;1.167215;
637953163775053578;1377.985;33;6;2;0.6;1.8;900;2.22222222222222;0.3078185;0.6542768;0.2851341;0.8028764;-0.5785094;2.18944;-0.4966613;2.194567;
637953163803039877;1380.784;33;6;4;0.1;1.4;1599;2.50156347717323;-0.2394138;0.8422151;-0.2044406;0.8591961;0;2.2;0.008930732;2.159076;
637953163819033467;1382.383;33;6;4;0.1;1.4;1599;2.50156347717323;0.4499513;2.036231;0.4307536;2.008132;-0.2394138;0.8422151;-0.2044406;0.8591961;
637953163838027742;1384.282;33;6;4;0.1;1.4;1899;2.10637177461822;-0.6062176;1.15;-0.5808825;1.146289;0.4499513;2.036231;0.4307536;2.008132;
637953163875016056;1387.981;33;6;4;0.1;1.4;3699;1.08137334414707;0.6893654;1.621554;0.6684294;1.617144;-0.6062176;1.15;-0.5808825;1.146289;
637953163893050111;1389.785;33;6;4;0.1;1.4;1804;2.21729490022173;-0.6893655;1.621553;-0.6761484;1.613454;0.6893654;1.621554;0.6684294;1.617144;
637953163908103493;1391.29;33;6;4;0.1;1.4;1505;2.6578073089701;0.6062179;1.15;0.5906212;1.183771;-0.6893655;1.621553;-0.6761484;1.613454;
637953163924097084;1392.889;33;6;4;0.1;1.4;1599;2.50156347717323;-0.4499517;2.036231;-0.4527527;1.996869;0.6062179;1.15;0.5906212;1.183771;
637953163946092037;1395.088;33;6;4;0.1;1.4;2199;1.81900864029104;0.2394144;0.8422153;0.2417872;0.8702719;-0.4499517;2.036231;-0.4527527;1.996869;
637953163972077879;1397.687;33;6;2.5;0.3;1.4;1099;2.27479526842584;-0.2394138;0.8422151;-0.1648747;0.93932;0;2.2;0.009681135;2.128915;
637953163983070350;1398.786;33;6;2.5;0.3;1.4;1099;2.27479526842584;0.4499513;2.036231;0.3872442;2.064013;-0.2394138;0.8422151;-0.1648747;0.93932;
637953163993072598;1399.786;33;6;2.5;0.3;1.4;1000;2.5;-0.6062176;1.15;-0.5982907;1.179124;0.4499513;2.036231;0.3872442;2.064013;
637953164003064846;1400.786;33;6;2.5;0.3;1.4;1000;2.5;0.6893654;1.621554;0.6628913;1.612277;-0.6062176;1.15;-0.5982907;1.179124;
637953164012056872;1401.685;33;6;2.5;0.3;1.4;900;2.77777777777778;-0.6893655;1.621553;-0.6795085;1.620922;0.6893654;1.621554;0.6628913;1.612277;
637953164020058667;1402.485;33;6;2.5;0.3;1.4;800;3.125;0.6062179;1.15;0.5589212;1.212787;-0.6893655;1.621553;-0.6795085;1.620922;
637953164029060695;1403.385;33;6;2.5;0.3;1.4;900;2.77777777777778;-0.4499517;2.036231;-0.4109417;1.986598;0.6062179;1.15;0.5589212;1.212787;
637953164037042483;1404.184;33;6;2.5;0.3;1.4;799;3.12891113892365;0.2394144;0.8422153;0.1169694;0.9273731;-0.4499517;2.036231;-0.4109417;1.986598;
637953164052085869;1405.688;33;6;1.5;1.1;2;804;1.86567164179104;-0.3420197;0.5603072;-0.2340781;1.043263;0;2.5;0.04808126;2.255378;
637953164059037430;1406.383;33;6;1.5;1.1;2;695;2.15827338129496;0.6427875;2.266045;0.4001536;2.277768;-0.3420197;0.5603072;-0.2340781;1.043263;
637953164067149252;1407.194;33;6;1.5;1.1;2;811;1.84956843403206;-0.8660251;0.9999995;-0.5734472;1.36456;0.6427875;2.266045;0.4001536;2.277768;
637953164075141509;1407.993;33;6;1.5;1.1;2;799;1.87734668335419;0.9848077;1.673648;0.5275329;1.658545;-0.8660251;0.9999995;-0.5734472;1.36456;
637953164082143085;1408.693;33;6;1.5;1.1;2;700;2.14285714285714;-0.9848078;1.673648;-0.6198174;1.743138;0.9848077;1.673648;0.5275329;1.658545;
637953164090134883;1409.493;33;6;1.5;1.1;2;800;1.875;0.8660256;1;0.5891264;1.295787;-0.9848078;1.673648;-0.6198174;1.743138;
637953164097106451;1410.19;33;6;1.5;1.1;2;698;2.14899713467049;-0.6427882;2.266044;-0.3442534;2.121584;0.8660256;1;0.5891264;1.295787;
637953164104128022;1410.892;33;6;1.5;1.1;2;701;2.1398002853067;0.3420205;0.5603075;0.2263669;0.9659122;-0.6427882;2.266044;-0.3442534;2.121584;
637953164131116992;1413.591;33;6;3.5;0.2;2;1695;2.06489675516224;-0.3420197;0.5603072;-0.3355037;0.6183141;0;2.5;0.02986967;2.418014;
637953164144108471;1414.89;33;6;3.5;0.2;2;1299;2.69438029253272;0.6427875;2.266045;0.606084;2.211448;-0.3420197;0.5603072;-0.3355037;0.6183141;
637953164160222092;1416.501;33;6;3.5;0.2;2;1611;2.17256362507759;-0.8660251;0.9999995;-0.823479;1.044205;0.6427875;2.266045;0.606084;2.211448;
637953164172204782;1417.7;33;6;3.5;0.2;2;1199;2.91909924937448;0.9848077;1.673648;0.9131342;1.692983;-0.8660251;0.9999995;-0.823479;1.044205;
637953164183197263;1418.799;33;6;3.5;0.2;2;1099;3.18471337579618;-0.9848078;1.673648;-0.9244196;1.634246;0.9848077;1.673648;0.9131342;1.692983;
637953164195199955;1419.999;33;6;3.5;0.2;2;1200;2.91666666666667;0.8660256;1;0.8074477;1.040957;-0.9848078;1.673648;-0.9244196;1.634246;
637953164206192429;1421.098;33;6;3.5;0.2;2;1099;3.18471337579618;-0.6427882;2.266044;-0.6452815;2.259508;0.8660256;1;0.8074477;1.040957;
637953164219185350;1422.398;33;6;3.5;0.2;2;1299;2.69438029253272;0.3420205;0.5603075;0.3305481;0.6468127;-0.6427882;2.266044;-0.6452815;2.259508;
637953164635345985;1464.012;33;7;3.5;0.2;2;1498;2.33644859813084;-0.3420197;0.5603072;-0.3271345;0.6478481;0;2.5;-0.02021363;2.446907;
637953164650339357;1465.511;33;7;3.5;0.2;2;1499;2.33488992661775;0.6427875;2.266045;0.6315794;2.240873;-0.3420197;0.5603072;-0.3271345;0.6478481;
637953164663432298;1466.821;33;7;3.5;0.2;2;1310;2.67175572519084;-0.8660251;0.9999995;-0.8007839;1.003587;0.6427875;2.266045;0.6315794;2.240873;
637953164674434774;1467.921;33;7;3.5;0.2;2;1100;3.18181818181818;0.9848077;1.673648;0.9390671;1.655184;-0.8660251;0.9999995;-0.8007839;1.003587;
637953164691418593;1469.62;33;7;3.5;0.2;2;1699;2.06003531489111;-0.9848078;1.673648;-0.8931984;1.673784;0.9848077;1.673648;0.9390671;1.655184;
637953164707412191;1471.219;33;7;3.5;0.2;2;1599;2.18886804252658;0.8660256;1;0.7785455;1.029621;-0.9848078;1.673648;-0.8931984;1.673784;
637953164725406234;1473.018;33;7;3.5;0.2;2;1799;1.94552529182879;-0.6427882;2.266044;-0.6648282;2.232502;0.8660256;1;0.7785455;1.029621;
637953164738409159;1474.318;33;7;3.5;0.2;2;1300;2.69230769230769;0.3420205;0.5603075;0.3150413;0.6351259;-0.6427882;2.266044;-0.6648282;2.232502;
637953164762384549;1476.717;33;7;2;0.6;1.8;1299;1.53964588144727;-0.3078177;0.6542765;-0.3336251;0.7864166;0;2.4;-0.004163744;2.235789;
637953164773387024;1477.817;33;7;2;0.6;1.8;1100;1.81818181818182;0.5785087;2.18944;0.5130354;2.082824;-0.3078177;0.6542765;-0.3336251;0.7864166;
637953164783399276;1478.818;33;7;2;0.6;1.8;1001;1.998001998002;-0.7794226;1.05;-0.5207044;1.049283;0.5785087;2.18944;0.5130354;2.082824;
637953164794371740;1479.916;33;7;2;0.6;1.8;1098;1.82149362477231;0.8863269;1.656283;0.733816;1.526006;-0.7794226;1.05;-0.5207044;1.049283;
637953164804373987;1480.915;33;7;2;0.6;1.8;1000;2;-0.8863271;1.656283;-0.600772;1.59215;0.8863269;1.656283;0.733816;1.526006;
637953164813366009;1481.814;33;7;2;0.6;1.8;899;2.22469410456062;0.779423;1.05;0.6737595;1.159837;-0.8863271;1.656283;-0.600772;1.59215;
637953164823473020;1482.825;33;7;2;0.6;1.8;1011;1.9782393669634;-0.5785094;2.18944;-0.5283266;1.971074;0.779423;1.05;0.6737595;1.159837;
637953164832473488;1483.725;33;7;2;0.6;1.8;900;2.22222222222222;0.3078185;0.6542768;0.2184558;0.8361181;-0.5785094;2.18944;-0.5283266;1.971074;
637953164872451098;1487.723;33;7;4;0.1;1.4;2199;1.81900864029104;-0.2394138;0.8422151;-0.2272563;0.8644431;0;2.2;-0.01397799;2.203215;
637953164896438608;1490.122;33;7;4;0.1;1.4;2399;1.66736140058358;0.4499513;2.036231;0.4580093;2.028298;-0.2394138;0.8422151;-0.2272563;0.8644431;
637953164918433549;1492.321;33;7;4;0.1;1.4;2199;1.81900864029104;-0.6062176;1.15;-0.5597844;1.138576;0.4499513;2.036231;0.4580093;2.028298;
637953164938428044;1494.32;33;7;4;0.1;1.4;1999;2.00100050025012;0.6893654;1.621554;0.6794125;1.58632;-0.6062176;1.15;-0.5597844;1.138576;
637953164965514134;1497.03;33;7;4;0.1;1.4;2710;1.4760147601476;-0.6893655;1.621553;-0.6939312;1.604741;0.6893654;1.621554;0.6794125;1.58632;
637953164984508404;1498.929;33;7;4;0.1;1.4;1899;2.10637177461822;0.6062179;1.15;0.5939172;1.165604;-0.6893655;1.621553;-0.6939312;1.604741;
637953165006503350;1501.128;33;7;4;0.1;1.4;2199;1.81900864029104;-0.4499517;2.036231;-0.452182;2.015339;0.6062179;1.15;0.5939172;1.165604;
637953165022737000;1502.759;33;7;4;0.1;1.4;1631;2.45248313917842;0.2394144;0.8422153;0.2178174;0.887098;-0.4499517;2.036231;-0.452182;2.015339;
637953165063586187;1506.836;33;7;4.5;0.1;2.2;1899;2.3696682464455;-0.3762217;0.4663379;-0.3592837;0.4764193;0;2.6;0.008243838;2.575602;
637953165082580452;1508.735;33;7;4.5;0.1;2.2;1899;2.3696682464455;0.7070663;2.342649;0.6768779;2.315912;-0.3762217;0.4663379;-0.3592837;0.4764193;
637953165098574051;1510.335;33;7;4.5;0.1;2.2;1599;2.81425891181989;-0.9526277;0.9499994;-0.9378703;0.9688236;0.7070663;2.342649;0.6768779;2.315912;
637953165111566971;1511.634;33;7;4.5;0.1;2.2;1300;3.46153846153846;1.083289;1.691013;1.051071;1.653739;-0.9526277;0.9499994;-0.9378703;0.9688236;
637953165122969535;1512.781;33;7;4.5;0.1;2.2;1147;3.9232781168265;-1.083289;1.691012;-1.105042;1.655419;1.083289;1.691013;1.051071;1.653739;
637953165138553042;1514.333;33;7;4.5;0.1;2.2;1552;2.89948453608247;0.9526281;0.9500003;0.9412317;0.9840022;-1.083289;1.691012;-1.105042;1.655419;
637953165159537757;1516.432;33;7;4.5;0.1;2.2;2099;2.14387803716055;-0.7070671;2.342648;-0.6969269;2.298556;0.9526281;0.9500003;0.9412317;0.9840022;
637953165181637036;1518.642;33;7;4.5;0.1;2.2;2210;2.03619909502262;0.3762226;0.4663382;0.3396385;0.5002778;-0.7070671;2.342648;-0.6969269;2.298556;
637953165199626673;1520.441;33;7;1.5;1.1;2;799;1.87734668335419;-0.3420197;0.5603072;-0.2733403;0.8771753;0;2.5;0.03960304;2.27676;
637953165206628242;1521.141;33;7;1.5;1.1;2;700;2.14285714285714;0.6427875;2.266045;0.4723177;1.989881;-0.3420197;0.5603072;-0.2733403;0.8771753;
637953165212619594;1521.74;33;7;1.5;1.1;2;600;2.5;-0.8660251;0.9999995;-0.5821723;1.313842;0.6427875;2.266045;0.4723177;1.989881;
637953165220624474;1522.54;33;7;1.5;1.1;2;800;1.875;0.9848077;1.673648;0.5477898;1.545855;-0.8660251;0.9999995;-0.5821723;1.313842;
637953165227614402;1523.24;33;7;1.5;1.1;2;700;2.14285714285714;-0.9848078;1.673648;-0.6178887;1.649829;0.9848077;1.673648;0.5477898;1.545855;
637953165234624563;1523.94;33;7;1.5;1.1;2;700;2.14285714285714;0.8660256;1;0.5981121;1.362709;-0.9848078;1.673648;-0.6178887;1.649829;
637953165243614477;1524.839;33;7;1.5;1.1;2;899;1.66852057842047;-0.6427882;2.266044;-0.5663595;1.833827;0.8660256;1;0.5981121;1.362709;
637953165262714020;1526.749;33;7;1.5;1.1;2;1910;0.785340314136126;0.3420205;0.5603075;0.2020897;0.9311559;-0.6427882;2.266044;-0.5663595;1.833827;
637953165288699107;1529.348;33;7;2.5;0.3;1.4;999;2.5025025025025;-0.2394138;0.8422151;-0.2061166;0.95526;0;2.2;-0.01923911;2.133811;
637953165298701352;1530.348;33;7;2.5;0.3;1.4;1000;2.5;0.4499513;2.036231;0.3700623;2.081725;-0.2394138;0.8422151;-0.2061166;0.95526;
637953165309693826;1531.447;33;7;2.5;0.3;1.4;1099;2.27479526842584;-0.6062176;1.15;-0.542683;1.172641;0.4499513;2.036231;0.3700623;2.081725;
637953165339680563;1534.446;33;7;2.5;0.3;1.4;2999;0.833611203734578;0.6893654;1.621554;0.601465;1.617764;-0.6062176;1.15;-0.542683;1.172641;
637953165355674162;1536.045;33;7;2.5;0.3;1.4;1599;1.56347717323327;-0.6893655;1.621553;-0.5730699;1.684706;0.6893654;1.621554;0.601465;1.617764;
637953165372657980;1537.744;33;7;2.5;0.3;1.4;1699;1.47145379635079;0.6062179;1.15;0.5622026;1.2509;-0.6893655;1.621553;-0.5730699;1.684706;
637953165387761376;1539.254;33;7;2.5;0.3;1.4;1510;1.65562913907285;-0.4499517;2.036231;-0.4023585;1.922987;0.6062179;1.15;0.5622026;1.2509;
637953165397763624;1540.254;33;7;2.5;0.3;1.4;1000;2.5;0.2394144;0.8422153;0.2214921;0.9664412;-0.4499517;2.036231;-0.4023585;1.922987;
637953165420748792;1542.553;33;7;3;0.2;1.4;1199;2.50208507089241;-0.2394138;0.8422151;-0.2484857;0.9197119;0;2.2;0.06797636;2.170857;
637953165442853765;1544.763;33;7;3;0.2;1.4;2210;1.35746606334842;0.4499513;2.036231;0.3685772;2.000493;-0.2394138;0.8422151;-0.2484857;0.9197119;
637953165458847361;1546.362;33;7;3;0.2;1.4;1599;1.87617260787993;-0.6062176;1.15;-0.5682528;1.114631;0.4499513;2.036231;0.3685772;2.000493;
637953165483832975;1548.861;33;7;3;0.2;1.4;2499;1.20048019207683;0.6893654;1.621554;0.7093872;1.642815;-0.6062176;1.15;-0.5682528;1.114631;
637953165503827473;1550.86;33;7;3;0.2;1.4;1999;1.50075037518759;-0.6893655;1.621553;-0.6194921;1.591538;0.6893654;1.621554;0.7093872;1.642815;
637953165517920639;1552.271;33;7;3;0.2;1.4;1410;2.12765957446809;0.6062179;1.15;0.5372;1.174586;-0.6893655;1.621553;-0.6194921;1.591538;
637953165534916507;1553.97;33;7;3;0.2;1.4;1700;1.76470588235294;-0.4499517;2.036231;-0.4149417;1.968034;0.6062179;1.15;0.5372;1.174586;
637953165548906905;1555.369;33;7;3;0.2;1.4;1399;2.14438884917798;0.2394144;0.8422153;0.1850675;0.8890642;-0.4499517;2.036231;-0.4149417;1.968034;
