637953182704065032;314.537;34;0;2;0.6;1.8;1099;1.81983621474067;-0.3078177;0.6542765;-0.3166804;0.6626759;0;2.4;0.08386979;2.252255;
637953182713387128;315.4765;34;0;2;0.6;1.8;940;2.12765957446809;0.5785087;2.18944;0.8221237;2.140034;-0.3078177;0.6542765;-0.3166804;0.6626759;
637953182722039075;316.334;34;0;2;0.6;1.8;857;2.33372228704784;-0.7794226;1.05;-0.6987833;1.148232;0.5785087;2.18944;0.8221237;2.140034;
637953182738052672;317.9354;34;0;2;0.6;1.8;1601;1.24921923797626;0.8863269;1.656283;0.7562481;1.672459;-0.7794226;1.05;-0.6987833;1.148232;
637953182748044921;318.935;34;0;2;0.6;1.8;1000;2;-0.8863271;1.656283;-0.7745127;1.613598;0.8863269;1.656283;0.7562481;1.672459;
637953182759037392;320.0342;34;0;2;0.6;1.8;1099;1.81983621474067;0.779423;1.05;0.7154157;1.053295;-0.8863271;1.656283;-0.7745127;1.613598;
637953182771040094;321.2339;34;0;2;0.6;1.8;1200;1.66666666666667;-0.5785094;2.18944;-0.4196958;2.037891;0.779423;1.05;0.7154157;1.053295;
637953182784143768;322.5444;34;0;2;0.6;1.8;1310;1.52671755725191;0.3078185;0.6542768;0.2339009;0.5325567;-0.5785094;2.18944;-0.4196958;2.037891;
637953182804128264;324.5431;34;0;1.5;1.1;2;1005;1.49253731343284;-0.3420197;0.5603072;-0.3216885;0.8296857;0;2.5;0.07669464;2.235696;
637953182815120734;325.643;34;0;1.5;1.1;2;1100;1.36363636363636;0.6427875;2.266045;0.4754411;2.095696;-0.3420197;0.5603072;-0.3216885;0.8296857;
637953182824122810;326.5425;34;0;1.5;1.1;2;900;1.66666666666667;-0.8660251;0.9999995;-0.7220799;1.140439;0.6427875;2.266045;0.4754411;2.095696;
637953182834117903;327.5418;34;0;1.5;1.1;2;999;1.5015015015015;0.9848077;1.673648;1.176831;1.651917;-0.8660251;0.9999995;-0.7220799;1.140439;
637953182842109776;328.3416;34;0;1.5;1.1;2;800;1.875;-0.9848078;1.673648;-0.6008256;1.536353;0.9848077;1.673648;1.176831;1.651917;
637953182852202045;329.3497;34;0;1.5;1.1;2;1008;1.48809523809524;0.8660256;1;0.7373021;1.236953;-0.9848078;1.673648;-0.6008256;1.536353;
637953182861104047;330.2411;34;0;1.5;1.1;2;891;1.68350168350168;-0.6427882;2.266044;-0.5486208;2.082005;0.8660256;1;0.7373021;1.236953;
637953182872096515;331.3403;34;0;1.5;1.1;2;1099;1.36487716105551;0.3420205;0.5603075;0.1833118;0.6474446;-0.6427882;2.266044;-0.5486208;2.082005;
637953182929179348;337.0488;34;0;4.5;0.1;2.2;2699;1.66728417932568;-0.3762217;0.4663379;-0.3351772;0.4670841;0;2.6;0.01253701;2.568586;
637953182967157886;340.8467;34;0;4.5;0.1;2.2;3798;1.18483412322275;0.7070663;2.342649;0.7084178;2.30987;-0.3762217;0.4663379;-0.3351772;0.4670841;
637953182998404915;343.9775;34;0;4.5;0.1;2.2;3131;1.43724049824337;-0.9526277;0.9499994;-0.9823391;0.9414207;0.7070663;2.342649;0.7084178;2.30987;
637953183030242071;347.1553;34;0;4.5;0.1;2.2;3178;1.41598489616111;1.083289;1.691013;1.050292;1.668072;-0.9526277;0.9499994;-0.9823391;0.9414207;
637953183053637330;349.5012;34;0;4.5;0.1;2.2;2346;1.91815856777494;-1.083289;1.691012;-1.053293;1.651068;1.083289;1.691013;1.050292;1.668072;
637953183085224432;352.6528;34;0;4.5;0.1;2.2;3152;1.42766497461929;0.9526281;0.9500003;0.9257208;0.9329469;-1.083289;1.691012;-1.053293;1.651068;
637953183145304354;358.6609;34;0;4.5;0.1;2.2;6008;0.749001331557923;-0.7070671;2.342648;-0.7030609;2.309505;0.9526281;0.9500003;0.9257208;0.9329469;
637953183180287428;362.1589;34;0;4.5;0.1;2.2;3498;1.28644939965695;0.3762226;0.4663382;0.4048898;0.5043793;-0.7070671;2.342648;-0.7030609;2.309505;
637953183230319903;367.1618;34;0;3.5;0.2;2;2399;1.45894122551063;-0.3420197;0.5603072;-0.3261809;0.5989201;0;2.5;0.0277642;2.445057;
637953183252261214;369.3564;34;0;3.5;0.2;2;2195;1.59453302961276;0.6427875;2.266045;0.6233089;2.273792;-0.3420197;0.5603072;-0.3261809;0.5989201;
637953183270245259;371.1553;34;0;3.5;0.2;2;1799;1.94552529182879;-0.8660251;0.9999995;-0.7999336;1.055938;0.6427875;2.266045;0.6233089;2.273792;
637953183294350678;373.5652;34;0;3.5;0.2;2;2410;1.45228215767635;0.9848077;1.673648;0.9352555;1.614488;-0.8660251;0.9999995;-0.7999336;1.055938;
637953183324337420;376.5639;34;0;3.5;0.2;2;2999;1.16705568522841;-0.9848078;1.673648;-0.9262408;1.609809;0.9848077;1.673648;0.9352555;1.614488;
637953183342301453;378.3599;34;0;3.5;0.2;2;1796;1.94877505567929;0.8660256;1;0.8283121;1.037296;-0.9848078;1.673648;-0.9262408;1.609809;
637953183367317085;380.8621;34;0;3.5;0.2;2;2502;1.39888089528377;-0.6427882;2.266044;-0.6273221;2.194899;0.8660256;1;0.8283121;1.037296;
637953183388301804;382.9607;34;0;3.5;0.2;2;2099;1.66746069556932;0.3420205;0.5603075;0.3494641;0.6326933;-0.6427882;2.266044;-0.6273221;2.194899;
637953183427400594;386.8703;34;0;2.5;0.3;1.4;1706;1.46541617819461;-0.2394138;0.8422151;-0.1901178;0.9256028;0;2.2;0.01830712;2.162612;
637953183449385537;389.069;34;0;2.5;0.3;1.4;2199;1.1368804001819;0.4499513;2.036231;0.5371735;2.092113;-0.2394138;0.8422151;-0.1901178;0.9256028;
637953183469390033;391.0688;34;0;2.5;0.3;1.4;2000;1.25;-0.6062176;1.15;-0.589981;1.160236;0.4499513;2.036231;0.5371735;2.092113;
637953183488364299;392.9669;34;0;2.5;0.3;1.4;1898;1.31717597471022;0.6893654;1.621554;0.6460615;1.614377;-0.6062176;1.15;-0.589981;1.160236;
637953183505358122;394.6662;34;0;2.5;0.3;1.4;1699;1.47145379635079;-0.6893655;1.621553;-0.6248811;1.629725;0.6893654;1.621554;0.6460615;1.614377;
637953183528348860;396.9653;34;0;2.5;0.3;1.4;2299;1.08742931709439;0.6062179;1.15;0.5564743;1.175762;-0.6893655;1.621553;-0.6248811;1.629725;
637953183552340645;399.3641;34;0;2.5;0.3;1.4;2399;1.04210087536474;-0.4499517;2.036231;-0.4138744;1.998865;0.6062179;1.15;0.5564743;1.175762;
637953183570332310;401.1638;34;0;2.5;0.3;1.4;1800;1.38888888888889;0.2394144;0.8422153;0.2355908;0.9272369;-0.4499517;2.036231;-0.4138744;1.998865;
637953183607478564;404.8778;34;0;3;0.2;1.4;2304;1.30208333333333;-0.2394138;0.8422151;-0.1963579;0.8310463;0;2.2;0.01784586;2.120922;
637953183626802914;406.8178;34;0;3;0.2;1.4;1940;1.54639175257732;0.4499513;2.036231;0.4028094;1.95795;-0.2394138;0.8422151;-0.1963579;0.8310463;
637953183644406874;408.5712;34;0;3;0.2;1.4;1753;1.71135196805476;-0.6062176;1.15;-0.5484939;1.165841;0.4499513;2.036231;0.4028094;1.95795;
637953183672393169;411.3698;34;0;3;0.2;1.4;2799;1.07181136120043;0.6893654;1.621554;0.6325093;1.585685;-0.6062176;1.15;-0.5484939;1.165841;
637953183695438341;413.6738;34;0;3;0.2;1.4;2304;1.30208333333333;-0.6893655;1.621553;-0.6302038;1.605719;0.6893654;1.621554;0.6325093;1.585685;
637953183717373278;415.8677;34;0;3;0.2;1.4;2194;1.36736554238833;0.6062179;1.15;0.5650288;1.164038;-0.6893655;1.621553;-0.6302038;1.605719;
637953183745469594;418.6775;34;0;3;0.2;1.4;2810;1.06761565836299;-0.4499517;2.036231;-0.4299392;1.952288;0.6062179;1.15;0.5650288;1.164038;
637953183766414302;420.7719;34;0;3;0.2;1.4;2094;1.43266475644699;0.2394144;0.8422153;0.2805629;0.8540926;-0.4499517;2.036231;-0.4299392;1.952288;
637953183816435550;425.7739;34;0;4;0.1;1.4;2299;1.73988690735102;-0.2394138;0.8422151;-0.2150366;0.846666;0;2.2;0.0475947;2.185925;
637953183847422516;428.8727;34;0;4;0.1;1.4;3099;1.29073894804776;0.4499513;2.036231;0.4347041;2.001595;-0.2394138;0.8422151;-0.2150366;0.846666;
637953183886517094;432.7819;34;0;4;0.1;1.4;3909;1.02327961115375;-0.6062176;1.15;-0.5919018;1.131198;0.4499513;2.036231;0.4347041;2.001595;
637953183916613459;435.7915;34;0;4;0.1;1.4;3010;1.32890365448505;0.6893654;1.621554;0.6686173;1.587734;-0.6062176;1.15;-0.5919018;1.131198;
637953183946590205;438.79;34;0;4;0.1;1.4;2998;1.33422281521014;-0.6893655;1.621553;-0.6506554;1.6052;0.6893654;1.621554;0.6686173;1.587734;
637953183981578069;442.2887;34;0;4;0.1;1.4;3499;1.14318376679051;0.6062179;1.15;0.610765;1.121056;-0.6893655;1.621553;-0.6506554;1.6052;
637953184014565482;445.587;34;0;4;0.1;1.4;3298;1.21285627653123;-0.4499517;2.036231;-0.4360455;1.999105;0.6062179;1.15;0.610765;1.121056;
637953184045662475;448.6968;34;0;4;0.1;1.4;3110;1.28617363344051;0.2394144;0.8422153;0.2514601;0.8483655;-0.4499517;2.036231;-0.4360455;1.999105;
637953185800274532;624.1595;34;1;4;0.1;1.4;2299;1.73988690735102;-0.2394138;0.8422151;-0.21961;0.8776706;0;2.2;0.01513852;2.184018;
637953185821269255;626.2585;34;1;4;0.1;1.4;2099;1.90566936636494;0.4499513;2.036231;0.4382154;2.011859;-0.2394138;0.8422151;-0.21961;0.8776706;
637953185838513129;627.9903;34;1;4;0.1;1.4;1732;2.3094688221709;-0.6062176;1.15;-0.5609564;1.17131;0.4499513;2.036231;0.4382154;2.011859;
637953185865249140;630.6564;34;1;4;0.1;1.4;2666;1.50037509377344;0.6893654;1.621554;0.669681;1.605881;-0.6062176;1.15;-0.5609564;1.17131;
637953185888344068;632.9666;34;1;4;0.1;1.4;2310;1.73160173160173;-0.6893655;1.621553;-0.7241089;1.605002;0.6893654;1.621554;0.669681;1.605881;
637953185906338574;634.7657;34;1;4;0.1;1.4;1799;2.22345747637576;0.6062179;1.15;0.5790008;1.177307;-0.6893655;1.621553;-0.7241089;1.605002;
637953185925332843;636.6647;34;1;4;0.1;1.4;1899;2.10637177461822;-0.4499517;2.036231;-0.4074032;2.013839;0.6062179;1.15;0.5790008;1.177307;
637953185947317788;638.8636;34;1;4;0.1;1.4;2199;1.81900864029104;0.2394144;0.8422153;0.2151335;0.8850819;-0.4499517;2.036231;-0.4074032;2.013839;
637953185996293562;643.7614;34;1;4.5;0.1;2.2;2499;1.80072028811525;-0.3762217;0.4663379;-0.349428;0.483619;0;2.6;0.03294116;2.588756;
637953186027280527;646.8602;34;1;4.5;0.1;2.2;3099;1.45208131655373;0.7070663;2.342649;0.6853365;2.303164;-0.3762217;0.4663379;-0.349428;0.483619;
637953186068379767;650.9692;34;1;4.5;0.1;2.2;4109;1.09515697249939;-0.9526277;0.9499994;-0.90757;0.9454724;0.7070663;2.342649;0.6853365;2.303164;
637953186104357857;654.5677;34;1;4.5;0.1;2.2;3599;1.25034731869964;1.083289;1.691013;1.039225;1.679123;-0.9526277;0.9499994;-0.90757;0.9454724;
637953186124342348;656.5664;34;1;4.5;0.1;2.2;1999;2.25112556278139;-1.083289;1.691012;-1.036101;1.675735;1.083289;1.691013;1.039225;1.679123;
637953186148337743;658.9659;34;1;4.5;0.1;2.2;2399;1.87578157565652;0.9526281;0.9500003;0.9161745;0.9477819;-1.083289;1.691012;-1.036101;1.675735;
637953186180314933;662.1638;34;1;4.5;0.1;2.2;3198;1.40712945590994;-0.7070671;2.342648;-0.7238277;2.300848;0.9526281;0.9500003;0.9161745;0.9477819;
637953186209421477;665.0737;34;1;4.5;0.1;2.2;2910;1.54639175257732;0.3762226;0.4663382;0.3661864;0.5114583;-0.7070671;2.342648;-0.7238277;2.300848;
637953186241408671;668.2725;34;1;1.5;1.1;2;1599;0.938086303939963;-0.3420197;0.5603072;-0.3065492;0.8822269;0;2.5;0.03517462;2.34935;
637953186259394542;670.0716;34;1;1.5;1.1;2;1799;0.833796553640912;0.6427875;2.266045;0.5327485;2.196902;-0.3420197;0.5603072;-0.3065492;0.8822269;
637953186277386053;671.8707;34;1;1.5;1.1;2;1799;0.833796553640912;-0.8660251;0.9999995;-0.7278523;1.147665;0.6427875;2.266045;0.5327485;2.196902;
637953186292379424;673.3701;34;1;1.5;1.1;2;1499;1.00066711140761;0.9848077;1.673648;0.792032;1.724283;-0.8660251;0.9999995;-0.7278523;1.147665;
637953186310377762;675.1693;34;1;1.5;1.1;2;1799;0.833796553640912;-0.9848078;1.673648;-0.7808164;1.76741;0.9848077;1.673648;0.792032;1.724283;
637953186325472461;676.6793;34;1;1.5;1.1;2;1510;0.993377483443709;0.8660256;1;0.7072584;1.170406;-0.9848078;1.673648;-0.7808164;1.76741;
637953186342466276;678.3786;34;1;1.5;1.1;2;1699;0.882872277810477;-0.6427882;2.266044;-0.5160013;2.193614;0.8660256;1;0.7072584;1.170406;
637953186371562828;681.2883;34;1;1.5;1.1;2;2910;0.515463917525773;0.3420205;0.5603075;0.2841976;0.8743982;-0.6427882;2.266044;-0.5160013;2.193614;
637953186401549566;684.2874;34;1;2.5;0.3;1.4;1299;1.92455735180908;-0.2394138;0.8422151;-0.2076745;0.7892298;0;2.2;0.005810169;2.109659;
637953186415542710;685.6866;34;1;2.5;0.3;1.4;1399;1.78699070764832;0.4499513;2.036231;0.4078793;2.030424;-0.2394138;0.8422151;-0.2076745;0.7892298;
637953186430536082;687.1859;34;1;2.5;0.3;1.4;1499;1.66777851901268;-0.6062176;1.15;-0.5505691;1.190212;0.4499513;2.036231;0.4078793;2.030424;
637953186446529679;688.785;34;1;2.5;0.3;1.4;1599;1.56347717323327;0.6893654;1.621554;0.6183463;1.630729;-0.6062176;1.15;-0.5505691;1.190212;
637953186461523049;690.2842;34;1;2.5;0.3;1.4;1499;1.66777851901268;-0.6893655;1.621553;-0.5409757;1.59984;0.6893654;1.621554;0.6183463;1.630729;
637953186482517770;692.3833;34;1;2.5;0.3;1.4;2099;1.19104335397808;0.6062179;1.15;0.542418;1.227095;-0.6893655;1.621553;-0.5409757;1.59984;
637953186496510916;693.7827;34;1;2.5;0.3;1.4;1399;1.78699070764832;-0.4499517;2.036231;-0.4139142;2.005844;0.6062179;1.15;0.542418;1.227095;
637953186510504061;695.1821;34;1;2.5;0.3;1.4;1399;1.78699070764832;0.2394144;0.8422153;0.2320224;0.9154098;-0.4499517;2.036231;-0.4139142;2.005844;
637953186565596448;700.6909;34;1;3.5;0.2;2;2710;1.29151291512915;-0.3420197;0.5603072;-0.3096189;0.5846508;0;2.5;-0.0005855355;2.462875;
637953186593572732;703.4893;34;1;3.5;0.2;2;2798;1.25089349535382;0.6427875;2.266045;0.6185078;2.223473;-0.3420197;0.5603072;-0.3096189;0.5846508;
637953186610571058;705.1886;34;1;3.5;0.2;2;1699;2.06003531489111;-0.8660251;0.9999995;-0.7777137;1.03355;0.6427875;2.266045;0.6185078;2.223473;
637953186623563981;706.488;34;1;3.5;0.2;2;1299;2.69438029253272;0.9848077;1.673648;0.9054778;1.627697;-0.8660251;0.9999995;-0.7777137;1.03355;
637953186637559766;707.8874;34;1;3.5;0.2;2;1399;2.50178699070765;-0.9848078;1.673648;-0.9453304;1.636535;0.9848077;1.673648;0.9054778;1.627697;
637953186661540747;710.2859;34;1;3.5;0.2;2;2399;1.45894122551063;0.8660256;1;0.8049257;1.060296;-0.9848078;1.673648;-0.9453304;1.636535;
637953186691527490;713.2849;34;1;3.5;0.2;2;2999;1.16705568522841;-0.6427882;2.266044;-0.6213125;2.186624;0.8660256;1;0.8049257;1.060296;
637953186707631107;714.8954;34;1;3.5;0.2;2;1611;2.17256362507759;0.3420205;0.5603075;0.3097175;0.6024626;-0.6427882;2.266044;-0.6213125;2.186624;
637953186735617399;717.6937;34;1;3;0.2;1.4;1399;2.14438884917798;-0.2394138;0.8422151;-0.1621461;0.9044467;0;2.2;0.0251734;2.147565;
637953186758602569;719.9925;34;1;3;0.2;1.4;2299;1.30491518051327;0.4499513;2.036231;0.4344015;1.995603;-0.2394138;0.8422151;-0.1621461;0.9044467;
637953186773595942;721.4919;34;1;3;0.2;1.4;1499;2.00133422281521;-0.6062176;1.15;-0.5701762;1.185766;0.4499513;2.036231;0.4344015;1.995603;
637953186786598862;722.7912;34;1;3;0.2;1.4;1299;2.3094688221709;0.6893654;1.621554;0.6652447;1.606452;-0.6062176;1.15;-0.5701762;1.185766;
637953186803582679;724.4905;34;1;3;0.2;1.4;1699;1.76574455562095;-0.6893655;1.621553;-0.6343512;1.665719;0.6893654;1.621554;0.6652447;1.606452;
637953186824687426;726.6006;34;1;3;0.2;1.4;2110;1.4218009478673;0.6062179;1.15;0.6048324;1.148641;-0.6893655;1.621553;-0.6343512;1.665719;
637953186839700806;728.1008;34;1;3;0.2;1.4;1500;2;-0.4499517;2.036231;-0.3776393;2.000809;0.6062179;1.15;0.6048324;1.148641;
637953186856674618;729.7991;34;1;3;0.2;1.4;1698;1.76678445229682;0.2394144;0.8422153;0.2236572;0.8650869;-0.4499517;2.036231;-0.3776393;2.000809;
637953186890662260;733.1979;34;1;2;0.6;1.8;1699;1.17716303708064;-0.3078177;0.6542765;-0.2738344;0.783592;0;2.4;-0.01982586;2.175217;
637953186909646527;735.0967;34;1;2;0.6;1.8;1899;1.05318588730911;0.5785087;2.18944;0.5159723;2.165724;-0.3078177;0.6542765;-0.2738344;0.783592;
637953186926640347;736.7958;34;1;2;0.6;1.8;1699;1.17716303708064;-0.7794226;1.05;-0.7039949;1.083773;0.5785087;2.18944;0.5159723;2.165724;
637953186941633721;738.295;34;1;2;0.6;1.8;1499;1.33422281521014;0.8863269;1.656283;0.8181247;1.736443;-0.7794226;1.05;-0.7039949;1.083773;
637953186955625722;739.6946;34;1;2;0.6;1.8;1400;1.42857142857143;-0.8863271;1.656283;-0.7821262;1.699702;0.8863269;1.656283;0.8181247;1.736443;
637953186970739119;741.2054;34;1;2;0.6;1.8;1511;1.32362673726009;0.779423;1.05;0.7128125;1.144511;-0.8863271;1.656283;-0.7821262;1.699702;
637953186984732267;742.6049;34;1;2;0.6;1.8;1399;1.42959256611866;-0.5785094;2.18944;-0.4541781;2.225949;0.779423;1.05;0.7128125;1.144511;
637953186999714230;744.1036;34;1;2;0.6;1.8;1499;1.33422281521014;0.3078185;0.6542768;0.3229405;0.7990245;-0.5785094;2.18944;-0.4541781;2.225949;
637953187780136086;822.1453;34;2;3;0.2;1.4;1500;2;-0.2394138;0.8422151;-0.2350281;0.9124668;0;2.2;0.01631803;2.106414;
637953187805121703;824.6442;34;2;3;0.2;1.4;2499;1.20048019207683;0.4499513;2.036231;0.4231503;2.018438;-0.2394138;0.8422151;-0.2350281;0.9124668;
637953187826116421;826.743;34;2;3;0.2;1.4;2099;1.4292520247737;-0.6062176;1.15;-0.5766132;1.178845;0.4499513;2.036231;0.4231503;2.018438;
637953187839109342;828.0424;34;2;3;0.2;1.4;1299;2.3094688221709;0.6893654;1.621554;0.617185;1.584256;-0.6062176;1.15;-0.5766132;1.178845;
637953187883089229;832.4402;34;2;3;0.2;1.4;4398;0.682128240109141;-0.6893655;1.621553;-0.6753882;1.574642;0.6893654;1.621554;0.617185;1.584256;
637953187903083726;834.4405;34;2;3;0.2;1.4;2000;1.5;0.6062179;1.15;0.5911751;1.13452;-0.6893655;1.621553;-0.6753882;1.574642;
637953187919187346;836.0504;34;2;3;0.2;1.4;1610;1.86335403726708;-0.4499517;2.036231;-0.411255;1.951576;0.6062179;1.15;0.5911751;1.13452;
637953187943172735;838.4484;34;2;3;0.2;1.4;2398;1.25104253544621;0.2394144;0.8422153;0.2523598;0.9237788;-0.4499517;2.036231;-0.411255;1.951576;
637953187970158805;841.1477;34;2;2;0.6;1.8;1200;1.66666666666667;-0.3078177;0.6542765;-0.280173;0.8623488;0;2.4;0.05061469;2.335814;
637953187981151277;842.2472;34;2;2;0.6;1.8;1099;1.81983621474067;0.5785087;2.18944;0.4786964;2.128174;-0.3078177;0.6542765;-0.280173;0.8623488;
637953187989153077;843.0469;34;2;2;0.6;1.8;800;2.5;-0.7794226;1.05;-0.7809708;1.078051;0.5785087;2.18944;0.4786964;2.128174;
637953187997144875;843.8464;34;2;2;0.6;1.8;799;2.50312891113892;0.8863269;1.656283;0.9977872;1.689974;-0.7794226;1.05;-0.7809708;1.078051;
637953188005146676;844.6461;34;2;2;0.6;1.8;800;2.5;-0.8863271;1.656283;-0.9698116;1.571774;0.8863269;1.656283;0.9977872;1.689974;
637953188013135466;845.4456;34;2;2;0.6;1.8;799;2.50312891113892;0.779423;1.05;0.9045834;0.9817081;-0.8863271;1.656283;-0.9698116;1.571774;
637953188023133037;846.4451;34;2;2;0.6;1.8;1000;2;-0.5785094;2.18944;-0.403249;2.12421;0.779423;1.05;0.9045834;0.9817081;
637953188036124308;847.7444;34;2;2;0.6;1.8;1299;1.53964588144727;0.3078185;0.6542768;0.3050662;0.8603578;-0.5785094;2.18944;-0.403249;2.12421;
637953188053231047;849.4551;34;2;1.5;1.1;2;799;1.87734668335419;-0.3420197;0.5603072;-0.3371698;0.9033077;0;2.5;0.128659;2.220878;
637953188060222621;850.1543;34;2;1.5;1.1;2;699;2.14592274678112;0.6427875;2.266045;0.4673154;2.001232;-0.3420197;0.5603072;-0.3371698;0.9033077;
637953188068224417;850.9539;34;2;1.5;1.1;2;800;1.875;-0.8660251;0.9999995;-0.7497368;1.03822;0.6427875;2.266045;0.4673154;2.001232;
637953188076221894;851.7536;34;2;1.5;1.1;2;800;1.875;0.9848077;1.673648;0.7198481;1.75744;-0.8660251;0.9999995;-0.7497368;1.03822;
637953188083211564;852.4534;34;2;1.5;1.1;2;700;2.14285714285714;-0.9848078;1.673648;-0.7306973;1.600894;0.9848077;1.673648;0.7198481;1.75744;
637953188101210332;854.2526;34;2;1.5;1.1;2;1799;0.833796553640912;0.8660256;1;0.4611414;1.251845;-0.9848078;1.673648;-0.7306973;1.600894;
637953188108199829;854.9523;34;2;1.5;1.1;2;700;2.14285714285714;-0.6427882;2.266044;-0.2943026;2.071468;0.8660256;1;0.4611414;1.251845;
637953188118203165;855.9518;34;2;1.5;1.1;2;1000;1.5;0.3420205;0.5603075;0.1553119;0.7899269;-0.6427882;2.266044;-0.2943026;2.071468;
637953188164285844;860.5606;34;2;3.5;0.2;2;1610;2.17391304347826;-0.3420197;0.5603072;-0.2767549;0.5989943;0;2.5;0.003271596;2.420694;
637953188218267980;865.9582;34;2;3.5;0.2;2;5398;0.648388291959985;0.6427875;2.266045;0.6132894;2.200075;-0.3420197;0.5603072;-0.2767549;0.5989943;
637953188239252698;868.0569;34;2;3.5;0.2;2;2099;1.66746069556932;-0.8660251;0.9999995;-0.8535227;1.03776;0.6427875;2.266045;0.6132894;2.200075;
637953188258246976;869.9564;34;2;3.5;0.2;2;1899;1.84307530279094;0.9848077;1.673648;0.915364;1.628502;-0.8660251;0.9999995;-0.8535227;1.03776;
637953188280231911;872.1555;34;2;3.5;0.2;2;2199;1.59163256025466;-0.9848078;1.673648;-0.9055377;1.664378;0.9848077;1.673648;0.915364;1.628502;
637953188296225508;873.7548;34;2;3.5;0.2;2;1599;2.18886804252658;0.8660256;1;0.8341612;1.021366;-0.9848078;1.673648;-0.9055377;1.664378;
637953188312219103;875.3539;34;2;3.5;0.2;2;1599;2.18886804252658;-0.6427882;2.266044;-0.6035771;2.187389;0.8660256;1;0.8341612;1.021366;
637953188326332275;876.7644;34;2;3.5;0.2;2;1410;2.4822695035461;0.3420205;0.5603075;0.3453521;0.5581968;-0.6427882;2.266044;-0.6035771;2.187389;
637953188389636508;883.103;34;2;4.5;0.1;2.2;2041;2.20480156785889;-0.3762217;0.4663379;-0.3526874;0.5099978;0;2.6;-0.02013231;2.566854;
637953188416282499;885.7602;34;2;4.5;0.1;2.2;2657;1.69363944298081;0.7070663;2.342649;0.6862999;2.333252;-0.3762217;0.4663379;-0.3526874;0.5099978;
637953188439264264;888.0588;34;2;4.5;0.1;2.2;2299;1.9573727707699;-0.9526277;0.9499994;-0.9181062;0.9534955;0.7070663;2.342649;0.6862999;2.333252;
637953188467371160;890.8689;34;2;4.5;0.1;2.2;2810;1.60142348754448;1.083289;1.691013;1.081752;1.678793;-0.9526277;0.9499994;-0.9181062;0.9534955;
637953188488357814;892.9678;34;2;4.5;0.1;2.2;2099;2.14387803716055;-1.083289;1.691012;-1.040045;1.666735;1.083289;1.691013;1.081752;1.678793;
637953188508352317;894.9669;34;2;4.5;0.1;2.2;1999;2.25112556278139;0.9526281;0.9500003;0.9123477;0.9440829;-1.083289;1.691012;-1.040045;1.666735;
637953188553332430;899.4651;34;2;4.5;0.1;2.2;4498;1.00044464206314;-0.7070671;2.342648;-0.6998351;2.301379;0.9526281;0.9500003;0.9123477;0.9440829;
637953188576317597;901.764;34;2;4.5;0.1;2.2;2299;1.9573727707699;0.3762226;0.4663382;0.3782963;0.5003515;-0.7070671;2.342648;-0.6998351;2.301379;
637953188638401557;907.9722;34;2;4;0.1;1.4;2199;1.81900864029104;-0.2394138;0.8422151;-0.2090111;0.8678969;0;2.2;0.02839334;2.164266;
637953188664387400;910.5708;34;2;4;0.1;1.4;2599;1.5390534821085;0.4499513;2.036231;0.4513232;2.011983;-0.2394138;0.8422151;-0.2090111;0.8678969;
637953188683381671;912.4697;34;2;4;0.1;1.4;1899;2.10637177461822;-0.6062176;1.15;-0.5637279;1.170517;0.4499513;2.036231;0.4513232;2.011983;
637953188705366614;914.6687;34;2;4;0.1;1.4;2199;1.81900864029104;0.6893654;1.621554;0.669133;1.601606;-0.6062176;1.15;-0.5637279;1.170517;
637953188729362006;917.068;34;2;4;0.1;1.4;2399;1.66736140058358;-0.6893655;1.621553;-0.6697102;1.63913;0.6893654;1.621554;0.669133;1.601606;
637953188746635893;918.8032;34;2;4;0.1;1.4;1735;2.30547550432277;0.6062179;1.15;0.5618702;1.17235;-0.6893655;1.621553;-0.6697102;1.63913;
637953188794437311;923.5759;34;2;4;0.1;1.4;4773;0.838047349675257;-0.4499517;2.036231;-0.4448113;2.034133;0.6062179;1.15;0.5618702;1.17235;
637953188820422787;926.1746;34;2;4;0.1;1.4;2599;1.5390534821085;0.2394144;0.8422153;0.2334499;0.8154149;-0.4499517;2.036231;-0.4448113;2.034133;
637953188858418148;929.9731;34;2;2.5;0.3;1.4;1800;1.38888888888889;-0.2394138;0.8422151;-0.2259028;0.8168837;0;2.2;0.008607944;2.070579;
637953188873409178;931.4722;34;2;2.5;0.3;1.4;1499;1.66777851901268;0.4499513;2.036231;0.4221647;2.001895;-0.2394138;0.8422151;-0.2259028;0.8168837;
637953188884395887;932.5717;34;2;2.5;0.3;1.4;1099;2.27479526842584;-0.6062176;1.15;-0.655533;1.263828;0.4499513;2.036231;0.4221647;2.001895;
637953188898389032;933.9709;34;2;2.5;0.3;1.4;1399;1.78699070764832;0.6893654;1.621554;0.6892835;1.664999;-0.6062176;1.15;-0.655533;1.263828;
637953188916493101;935.7813;34;2;2.5;0.3;1.4;1810;1.38121546961326;-0.6893655;1.621553;-0.6471913;1.593692;0.6893654;1.621554;0.6892835;1.664999;
637953188935487371;937.6804;34;2;2.5;0.3;1.4;1899;1.31648235913639;0.6062179;1.15;0.5896396;1.157259;-0.6893655;1.621553;-0.6471913;1.593692;
637953188953481416;939.4796;34;2;2.5;0.3;1.4;1799;1.38966092273485;-0.4499517;2.036231;-0.4210204;2.010818;0.6062179;1.15;0.5896396;1.157259;
637953188968464788;940.9786;34;2;2.5;0.3;1.4;1499;1.66777851901268;0.2394144;0.8422153;0.2520192;0.9288292;-0.4499517;2.036231;-0.4210204;2.010818;
637953189712919386;1015.423;34;3;4.5;0.1;2.2;2000;2.25;-0.3762217;0.4663379;-0.3397567;0.4996753;0;2.6;0.009398902;2.565636;
637953189739905450;1018.121;34;3;4.5;0.1;2.2;2698;1.66790214974055;0.7070663;2.342649;0.6983035;2.316615;-0.3762217;0.4663379;-0.3397567;0.4996753;
637953189762890621;1020.42;34;3;4.5;0.1;2.2;2299;1.9573727707699;-0.9526277;0.9499994;-0.9101288;0.9615722;0.7070663;2.342649;0.6983035;2.316615;
637953189783995362;1022.53;34;3;4.5;0.1;2.2;2110;2.13270142180095;1.083289;1.691013;1.069148;1.665461;-0.9526277;0.9499994;-0.9101288;0.9615722;
637953189806990533;1024.829;34;3;4.5;0.1;2.2;2299;1.9573727707699;-1.083289;1.691012;-1.051802;1.717016;1.083289;1.691013;1.069148;1.665461;
637953189824984579;1026.628;34;3;4.5;0.1;2.2;1799;2.50138966092273;0.9526281;0.9500003;0.9209786;0.9734784;-1.083289;1.691012;-1.051802;1.717016;
637953189857951992;1029.927;34;3;4.5;0.1;2.2;3298;1.36446331109763;-0.7070671;2.342648;-0.6892933;2.301666;0.9526281;0.9500003;0.9209786;0.9734784;
637953189875936038;1031.725;34;3;4.5;0.1;2.2;1799;2.50138966092273;0.3762226;0.4663382;0.3595024;0.5099963;-0.7070671;2.342648;-0.6892933;2.301666;
637953189909924528;1035.124;34;3;2;0.6;1.8;1799;1.11172873818788;-0.3078177;0.6542765;-0.2543264;0.9007288;0;2.4;0.03769293;2.20694;
637953189925029721;1036.635;34;3;2;0.6;1.8;1511;1.32362673726009;0.5785087;2.18944;0.4805704;2.102376;-0.3078177;0.6542765;-0.2543264;0.9007288;
637953189940020235;1038.134;34;3;2;0.6;1.8;1499;1.33422281521014;-0.7794226;1.05;-0.7114487;1.22915;0.5785087;2.18944;0.4805704;2.102376;
637953189953014987;1039.433;34;3;2;0.6;1.8;1299;1.53964588144727;0.8863269;1.656283;0.8005754;1.580263;-0.7794226;1.05;-0.7114487;1.22915;
637953189966005712;1040.732;34;3;2;0.6;1.8;1299;1.53964588144727;-0.8863271;1.656283;-0.931102;1.511135;0.8863269;1.656283;0.8005754;1.580263;
637953189982004602;1042.332;34;3;2;0.6;1.8;1599;1.25078173858662;0.779423;1.05;0.6245387;1.232626;-0.8863271;1.656283;-0.931102;1.511135;
637953190001005504;1044.231;34;3;2;0.6;1.8;1899;1.05318588730911;-0.5785094;2.18944;-0.4959306;2.094838;0.779423;1.05;0.6245387;1.232626;
637953190014988983;1045.63;34;3;2;0.6;1.8;1399;1.42959256611866;0.3078185;0.6542768;0.318069;0.883317;-0.5785094;2.18944;-0.4959306;2.094838;
637953190055078033;1049.639;34;3;4;0.1;1.4;2410;1.6597510373444;-0.2394138;0.8422151;-0.224623;0.8861234;0;2.2;0.009449695;2.166073;
637953190070071402;1051.139;34;3;4;0.1;1.4;1499;2.66844563042028;0.4499513;2.036231;0.4201487;2.008821;-0.2394138;0.8422151;-0.224623;0.8861234;
637953190094166817;1053.549;34;3;4;0.1;1.4;2410;1.6597510373444;-0.6062176;1.15;-0.6178995;1.14475;0.4499513;2.036231;0.4201487;2.008821;
637953190110160416;1055.148;34;3;4;0.1;1.4;1599;2.50156347717323;0.6893654;1.621554;0.6538758;1.587606;-0.6062176;1.15;-0.6178995;1.14475;
637953190143147833;1058.446;34;3;4;0.1;1.4;3298;1.21285627653123;-0.6893655;1.621553;-0.6926489;1.598215;0.6893654;1.621554;0.6538758;1.587606;
637953190154140303;1059.546;34;3;4;0.1;1.4;1100;3.63636363636364;0.6062179;1.15;0.6267123;1.184148;-0.6893655;1.621553;-0.6926489;1.598215;
637953190173134573;1061.445;34;3;4;0.1;1.4;1899;2.10637177461822;-0.4499517;2.036231;-0.4517894;2.019386;0.6062179;1.15;0.6267123;1.184148;
637953190188127942;1062.944;34;3;4;0.1;1.4;1499;2.66844563042028;0.2394144;0.8422153;0.235447;0.8868071;-0.4499517;2.036231;-0.4517894;2.019386;
637953190223105810;1066.443;34;3;3.5;0.2;2;1899;1.84307530279094;-0.3420197;0.5603072;-0.3062238;0.6228315;0;2.5;0.0003463699;2.424013;
637953190256203252;1069.752;34;3;3.5;0.2;2;3309;1.05772136597159;0.6427875;2.266045;0.6063866;2.265213;-0.3420197;0.5603072;-0.3062238;0.6228315;
637953190275197524;1071.651;34;3;3.5;0.2;2;1899;1.84307530279094;-0.8660251;0.9999995;-0.8228897;1.001852;0.6427875;2.266045;0.6063866;2.265213;
637953190290190891;1073.151;34;3;3.5;0.2;2;1500;2.33333333333333;0.9848077;1.673648;0.9516419;1.659117;-0.8660251;0.9999995;-0.8228897;1.001852;
637953190304186971;1074.55;34;3;3.5;0.2;2;1399;2.50178699070765;-0.9848078;1.673648;-0.9510401;1.665359;0.9848077;1.673648;0.9516419;1.659117;
637953190320172533;1076.149;34;3;3.5;0.2;2;1599;2.18886804252658;0.8660256;1;0.8334745;1.060072;-0.9848078;1.673648;-0.9510401;1.665359;
637953190343167738;1078.448;34;3;3.5;0.2;2;2299;1.52240104393214;-0.6427882;2.266044;-0.6148994;2.208638;0.8660256;1;0.8334745;1.060072;
637953190358155638;1079.948;34;3;3.5;0.2;2;1500;2.33333333333333;0.3420205;0.5603075;0.3304577;0.6227524;-0.6427882;2.266044;-0.6148994;2.208638;
637953190379260384;1082.058;34;3;1.5;1.1;2;1010;1.48514851485149;-0.3420197;0.5603072;-0.2563437;0.9350688;0;2.5;0.06673968;2.242249;
637953190387252179;1082.858;34;3;1.5;1.1;2;800;1.875;0.6427875;2.266045;0.4188652;2.069687;-0.3420197;0.5603072;-0.2563437;0.9350688;
637953190396254207;1083.758;34;3;1.5;1.1;2;900;1.66666666666667;-0.8660251;0.9999995;-0.8076856;1.192408;0.6427875;2.266045;0.4188652;2.069687;
637953190404246001;1084.557;34;3;1.5;1.1;2;799;1.87734668335419;0.9848077;1.673648;0.8876826;1.610333;-0.8660251;0.9999995;-0.8076856;1.192408;
637953190412247798;1085.356;34;3;1.5;1.1;2;800;1.875;-0.9848078;1.673648;-0.8137611;1.612148;0.9848077;1.673648;0.8876826;1.610333;
637953190427241171;1086.855;34;3;1.5;1.1;2;1499;1.00066711140761;0.8660256;1;0.4332506;1.264673;-0.9848078;1.673648;-0.8137611;1.612148;
637953190438233637;1087.955;34;3;1.5;1.1;2;1100;1.36363636363636;-0.6427882;2.266044;-0.3720908;2.333251;0.8660256;1;0.4332506;1.264673;
637953190449226117;1089.055;34;3;1.5;1.1;2;1099;1.36487716105551;0.3420205;0.5603075;0.114769;0.7364781;-0.6427882;2.266044;-0.3720908;2.333251;
637953190473331532;1091.464;34;3;3;0.2;1.4;1305;2.29885057471264;-0.2394138;0.8422151;-0.184601;0.8627942;0;2.2;-0.01878113;2.248191;
637953190489315127;1093.064;34;3;3;0.2;1.4;1599;1.87617260787993;0.4499513;2.036231;0.3853247;2.010232;-0.2394138;0.8422151;-0.184601;0.8627942;
637953190501317829;1094.263;34;3;3;0.2;1.4;1199;2.50208507089241;-0.6062176;1.15;-0.6612354;1.155009;0.4499513;2.036231;0.3853247;2.010232;
637953190512310298;1095.363;34;3;3;0.2;1.4;1100;2.72727272727273;0.6893654;1.621554;0.6567605;1.629996;-0.6062176;1.15;-0.6612354;1.155009;
637953190535345467;1097.667;34;3;3;0.2;1.4;2304;1.30208333333333;-0.6893655;1.621553;-0.6254988;1.575537;0.6893654;1.621554;0.6567605;1.629996;
637953190550288837;1099.161;34;3;3;0.2;1.4;1494;2.00803212851406;0.6062179;1.15;0.54826;1.175322;-0.6893655;1.621553;-0.6254988;1.575537;
637953190578275130;1101.96;34;3;3;0.2;1.4;2799;1.07181136120043;-0.4499517;2.036231;-0.418698;2.010715;0.6062179;1.15;0.54826;1.175322;
637953190593268499;1103.459;34;3;3;0.2;1.4;1499;2.00133422281521;0.2394144;0.8422153;0.2014123;0.8545886;-0.4499517;2.036231;-0.418698;2.010715;
637953190618314129;1105.963;34;3;2.5;0.3;1.4;1204;2.07641196013289;-0.2394138;0.8422151;-0.2027622;0.9213395;0;2.2;0.02374487;2.136291;
637953190629366617;1107.068;34;3;2.5;0.3;1.4;1105;2.26244343891403;0.4499513;2.036231;0.3735206;2.087373;-0.2394138;0.8422151;-0.2027622;0.9213395;
637953190642358142;1108.368;34;3;2.5;0.3;1.4;1299;1.92455735180908;-0.6062176;1.15;-0.5248358;1.189011;0.4499513;2.036231;0.3735206;2.087373;
637953190654355699;1109.567;34;3;2.5;0.3;1.4;1199;2.08507089241034;0.6893654;1.621554;0.5991617;1.561456;-0.6062176;1.15;-0.5248358;1.189011;
637953190662347495;1110.367;34;3;2.5;0.3;1.4;800;3.125;-0.6893655;1.621553;-0.6734336;1.539173;0.6893654;1.621554;0.5991617;1.561456;
637953190683342243;1112.466;34;3;2.5;0.3;1.4;2099;1.19104335397808;0.6062179;1.15;0.5152229;1.234965;-0.6893655;1.621553;-0.6734336;1.539173;
637953190696335164;1113.765;34;3;2.5;0.3;1.4;1299;1.92455735180908;-0.4499517;2.036231;-0.4058374;1.960959;0.6062179;1.15;0.5152229;1.234965;
637953190716325908;1115.764;34;3;2.5;0.3;1.4;1999;1.25062531265633;0.2394144;0.8422153;0.2440647;0.8507859;-0.4499517;2.036231;-0.4058374;1.960959;
637953191984847273;1242.617;34;4;3.5;0.2;2;1400;2.5;-0.3420197;0.5603072;-0.2667649;0.5839866;0;2.5;-0.004954298;2.490798;
637953191997840192;1243.916;34;4;3.5;0.2;2;1299;2.69438029253272;0.6427875;2.266045;0.638171;2.281844;-0.3420197;0.5603072;-0.2667649;0.5839866;
637953192011833340;1245.315;34;4;3.5;0.2;2;1399;2.50178699070765;-0.8660251;0.9999995;-0.7826735;1.000824;0.6427875;2.266045;0.638171;2.281844;
637953192026826708;1246.814;34;4;3.5;0.2;2;1499;2.33488992661775;0.9848077;1.673648;0.9751894;1.655944;-0.8660251;0.9999995;-0.7826735;1.000824;
637953192045820979;1248.714;34;4;3.5;0.2;2;1899;1.84307530279094;-0.9848078;1.673648;-0.9421795;1.665725;0.9848077;1.673648;0.9751894;1.655944;
637953192059814126;1250.113;34;4;3.5;0.2;2;1400;2.5;0.8660256;1;0.8488526;1.058687;-0.9848078;1.673648;-0.9421795;1.665725;
637953192075807727;1251.712;34;4;3.5;0.2;2;1599;2.18886804252658;-0.6427882;2.266044;-0.5793912;2.225349;0.8660256;1;0.8488526;1.058687;
637953192091801321;1253.312;34;4;3.5;0.2;2;1599;2.18886804252658;0.3420205;0.5603075;0.2847746;0.5619138;-0.6427882;2.266044;-0.5793912;2.225349;
637953192112898199;1255.422;34;4;1.5;1.1;2;1011;1.48367952522255;-0.3420197;0.5603072;-0.1966098;0.9885651;0;2.5;0.05683716;2.162361;
637953192121890222;1256.321;34;4;1.5;1.1;2;900;1.66666666666667;0.6427875;2.266045;0.5217689;1.988794;-0.3420197;0.5603072;-0.1966098;0.9885651;
637953192152875722;1259.42;34;4;1.5;1.1;2;3099;0.484027105517909;-0.8660251;0.9999995;-0.7125065;1.171644;0.6427875;2.266045;0.5217689;1.988794;
637953192164872502;1260.619;34;4;1.5;1.1;2;1199;1.25104253544621;0.9848077;1.673648;0.6295575;1.639189;-0.8660251;0.9999995;-0.7125065;1.171644;
637953192174866511;1261.619;34;4;1.5;1.1;2;1000;1.5;-0.9848078;1.673648;-0.7532356;1.584303;0.9848077;1.673648;0.6295575;1.639189;
637953192185868984;1262.718;34;4;1.5;1.1;2;1099;1.36487716105551;0.8660256;1;0.5768366;1.234105;-0.9848078;1.673648;-0.7532356;1.584303;
637953192195971254;1263.729;34;4;1.5;1.1;2;1011;1.48367952522255;-0.6427882;2.266044;-0.5432979;2.14859;0.8660256;1;0.5768366;1.234105;
637953192206963728;1264.829;34;4;1.5;1.1;2;1100;1.36363636363636;0.3420205;0.5603075;0.1853961;0.901291;-0.6427882;2.266044;-0.5432979;2.14859;
637953192240951371;1268.227;34;4;3;0.2;1.4;1799;1.66759310728182;-0.2394138;0.8422151;-0.1894746;0.8761309;0;2.2;0.007987058;2.131135;
637953192254944512;1269.626;34;4;3;0.2;1.4;1399;2.14438884917798;0.4499513;2.036231;0.4325455;2.024768;-0.2394138;0.8422151;-0.1894746;0.8761309;
637953192273048583;1271.437;34;4;3;0.2;1.4;1811;1.65654334621756;-0.6062176;1.15;-0.5660928;1.181256;0.4499513;2.036231;0.4325455;2.024768;
637953192287141753;1272.845;34;4;3;0.2;1.4;1408;2.13068181818182;0.6893654;1.621554;0.6419221;1.580803;-0.6062176;1.15;-0.5660928;1.181256;
637953192310026897;1275.135;34;4;3;0.2;1.4;2290;1.31004366812227;-0.6893655;1.621553;-0.6280376;1.608952;0.6893654;1.621554;0.6419221;1.580803;
637953192328020943;1276.934;34;4;3;0.2;1.4;1799;1.66759310728182;0.6062179;1.15;0.5560107;1.174794;-0.6893655;1.621553;-0.6280376;1.608952;
637953192350005887;1279.133;34;4;3;0.2;1.4;2199;1.36425648021828;-0.4499517;2.036231;-0.4075869;1.988306;0.6062179;1.15;0.5560107;1.174794;
637953192369000161;1281.032;34;4;3;0.2;1.4;1899;1.57977883096367;0.2394144;0.8422153;0.2082477;0.8747038;-0.4499517;2.036231;-0.4075869;1.988306;
637953192389994878;1283.131;34;4;2.5;0.3;1.4;1100;2.27272727272727;-0.2394138;0.8422151;-0.2032737;0.9153025;0;2.2;-0.00350736;2.217809;
637953192399987121;1284.13;34;4;2.5;0.3;1.4;999;2.5025025025025;0.4499513;2.036231;0.4263379;1.94442;-0.2394138;0.8422151;-0.2032737;0.9153025;
637953192410989597;1285.23;34;4;2.5;0.3;1.4;1100;2.27272727272727;-0.6062176;1.15;-0.5302367;1.189285;0.4499513;2.036231;0.4263379;1.94442;
637953192419981620;1286.13;34;4;2.5;0.3;1.4;900;2.77777777777778;0.6893654;1.621554;0.6535621;1.606842;-0.6062176;1.15;-0.5302367;1.189285;
637953192428973640;1287.029;34;4;2.5;0.3;1.4;900;2.77777777777778;-0.6893655;1.621553;-0.7347834;1.61651;0.6893654;1.621554;0.6535621;1.606842;
637953192437085466;1287.84;34;4;2.5;0.3;1.4;811;3.0826140567201;0.6062179;1.15;0.5983626;1.181705;-0.6893655;1.621553;-0.7347834;1.61651;
637953192449078161;1289.039;34;4;2.5;0.3;1.4;1199;2.08507089241034;-0.4499517;2.036231;-0.3861322;2.000077;0.6062179;1.15;0.5983626;1.181705;
637953192461070859;1290.239;34;4;2.5;0.3;1.4;1200;2.08333333333333;0.2394144;0.8422153;0.2221059;0.956155;-0.4499517;2.036231;-0.3861322;2.000077;
637953192502051637;1294.337;34;4;4;0.1;1.4;2499;1.60064025610244;-0.2394138;0.8422151;-0.2308604;0.8615184;0;2.2;-0.00694994;2.196225;
637953192529046393;1297.036;34;4;4;0.1;1.4;2699;1.48203038162282;0.4499513;2.036231;0.4275216;1.994347;-0.2394138;0.8422151;-0.2308604;0.8615184;
637953192549032001;1299.035;34;4;4;0.1;1.4;1999;2.00100050025012;-0.6062176;1.15;-0.6132891;1.172357;0.4499513;2.036231;0.4275216;1.994347;
637953192562024927;1300.334;34;4;4;0.1;1.4;1299;3.07929176289453;0.6893654;1.621554;0.6830788;1.641598;-0.6062176;1.15;-0.6132891;1.172357;
637953192581019196;1302.233;34;4;4;0.1;1.4;1899;2.10637177461822;-0.6893655;1.621553;-0.6770844;1.605965;0.6893654;1.621554;0.6830788;1.641598;
637953192598113035;1303.944;34;4;4;0.1;1.4;1710;2.33918128654971;0.6062179;1.15;0.5749967;1.152406;-0.6893655;1.621553;-0.6770844;1.605965;
637953192612116188;1305.343;34;4;4;0.1;1.4;1400;2.85714285714286;-0.4499517;2.036231;-0.4468447;2.001674;0.6062179;1.15;0.5749967;1.152406;
637953192630100233;1307.142;34;4;4;0.1;1.4;1799;2.22345747637576;0.2394144;0.8422153;0.2247553;0.8812242;-0.4499517;2.036231;-0.4468447;2.001674;
637953192676080570;1311.74;34;4;4.5;0.1;2.2;2299;1.9573727707699;-0.3762217;0.4663379;-0.3655979;0.5030913;0;2.6;0.01277502;2.55895;
637953192692074167;1313.339;34;4;4.5;0.1;2.2;1599;2.81425891181989;0.7070663;2.342649;0.6974258;2.316496;-0.3762217;0.4663379;-0.3655979;0.5030913;
637953192710068213;1315.138;34;4;4.5;0.1;2.2;1799;2.50138966092273;-0.9526277;0.9499994;-0.9103306;0.9701995;0.7070663;2.342649;0.6974258;2.316496;
637953192737054280;1317.837;34;4;4.5;0.1;2.2;2699;1.66728417932568;1.083289;1.691013;1.050482;1.691446;-0.9526277;0.9499994;-0.9103306;0.9701995;
637953192756158572;1319.747;34;4;4.5;0.1;2.2;1910;2.35602094240838;-1.083289;1.691012;-1.045973;1.680296;1.083289;1.691013;1.050482;1.691446;
637953192776143067;1321.746;34;4;4.5;0.1;2.2;1999;2.25112556278139;0.9526281;0.9500003;0.9390481;0.9685129;-1.083289;1.691012;-1.045973;1.680296;
637953192795137337;1323.645;34;4;4.5;0.1;2.2;1899;2.3696682464455;-0.7070671;2.342648;-0.687014;2.332655;0.9526281;0.9500003;0.9390481;0.9685129;
637953192811130934;1325.245;34;4;4.5;0.1;2.2;1600;2.8125;0.3762226;0.4663382;0.3626179;0.4954462;-0.7070671;2.342648;-0.687014;2.332655;
637953192843111645;1328.443;34;4;2;0.6;1.8;1600;1.25;-0.3078177;0.6542765;-0.3084115;0.8111497;0;2.4;0.02994046;2.35317;
637953192856112307;1329.743;34;4;2;0.6;1.8;1299;1.53964588144727;0.5785087;2.18944;0.4812539;2.122418;-0.3078177;0.6542765;-0.3084115;0.8111497;
637953192871105676;1331.242;34;4;2;0.6;1.8;1499;1.33422281521014;-0.7794226;1.05;-0.652818;1.060102;0.5785087;2.18944;0.4812539;2.122418;
637953192881107924;1332.242;34;4;2;0.6;1.8;1000;2;0.8863269;1.656283;0.7091241;1.770487;-0.7794226;1.05;-0.652818;1.060102;
637953192892200308;1333.352;34;4;2;0.6;1.8;1110;1.8018018018018;-0.8863271;1.656283;-0.7736436;1.577201;0.8863269;1.656283;0.7091241;1.770487;
637953192907199511;1334.852;34;4;2;0.6;1.8;1500;1.33333333333333;0.779423;1.05;0.6231318;1.200075;-0.8863271;1.656283;-0.7736436;1.577201;
637953192920192435;1336.151;34;4;2;0.6;1.8;1299;1.53964588144727;-0.5785094;2.18944;-0.3294504;2.069346;0.779423;1.05;0.6231318;1.200075;
637953192935185803;1337.65;34;4;2;0.6;1.8;1499;1.33422281521014;0.3078185;0.6542768;0.254209;0.8792025;-0.5785094;2.18944;-0.3294504;2.069346;
637953193636519773;1407.784;34;5;2;0.6;1.8;1099;1.81983621474067;-0.3078177;0.6542765;-0.3050549;0.843032;0;2.4;-0.04310933;2.373895;
637953193646522023;1408.783;34;5;2;0.6;1.8;1000;2;0.5785087;2.18944;0.3948162;2.172213;-0.3078177;0.6542765;-0.3050549;0.843032;
637953193654513813;1409.583;34;5;2;0.6;1.8;800;2.5;-0.7794226;1.05;-0.9135506;1.042151;0.5785087;2.18944;0.3948162;2.172213;
637953193662515619;1410.383;34;5;2;0.6;1.8;800;2.5;0.8863269;1.656283;0.8117397;1.748172;-0.7794226;1.05;-0.9135506;1.042151;
637953193686501011;1412.782;34;5;2;0.6;1.8;2399;0.833680700291788;-0.8863271;1.656283;-0.6455109;1.556542;0.8863269;1.656283;0.8117397;1.748172;
637953193696493256;1413.782;34;5;2;0.6;1.8;1000;2;0.779423;1.05;0.5352765;1.095659;-0.8863271;1.656283;-0.6455109;1.556542;
637953193705495283;1414.681;34;5;2;0.6;1.8;900;2.22222222222222;-0.5785094;2.18944;-0.3961327;2.115828;0.779423;1.05;0.5352765;1.095659;
637953193715487530;1415.68;34;5;2;0.6;1.8;999;2.002002002002;0.3078185;0.6542768;0.2354172;0.8194021;-0.5785094;2.18944;-0.3961327;2.115828;
637953193740583174;1418.19;34;5;3.5;0.2;2;1210;2.89256198347107;-0.3420197;0.5603072;-0.2910345;0.6458132;0;2.5;-0.01740069;2.462824;
637953193752585870;1419.39;34;5;3.5;0.2;2;1199;2.91909924937448;0.6427875;2.266045;0.5981169;2.265508;-0.3420197;0.5603072;-0.2910345;0.6458132;
637953193763578340;1420.49;34;5;3.5;0.2;2;1099;3.18471337579618;-0.8660251;0.9999995;-0.7848461;1.024307;0.6427875;2.266045;0.5981169;2.265508;
637953193775571037;1421.689;34;5;3.5;0.2;2;1200;2.91666666666667;0.9848077;1.673648;0.9252661;1.660475;-0.8660251;0.9999995;-0.7848461;1.024307;
637953193815660050;1425.698;34;5;3.5;0.2;2;4009;0.873035669743078;-0.9848078;1.673648;-0.9663649;1.68645;0.9848077;1.673648;0.9252661;1.660475;
637953193828662974;1426.998;34;5;3.5;0.2;2;1300;2.69230769230769;0.8660256;1;0.7793283;1.030139;-0.9848078;1.673648;-0.9663649;1.68645;
637953193841655896;1428.297;34;5;3.5;0.2;2;1300;2.69230769230769;-0.6427882;2.266044;-0.619203;2.231326;0.8660256;1;0.7793283;1.030139;
637953193854648817;1429.596;34;5;3.5;0.2;2;1299;2.69438029253272;0.3420205;0.5603075;0.3490874;0.6423353;-0.6427882;2.266044;-0.619203;2.231326;
637953193926725299;1436.804;34;5;4.5;0.1;2.2;3509;1.28241664291821;-0.3762217;0.4663379;-0.3763503;0.4848752;0;2.6;0.01216374;2.580711;
637953193953723409;1439.504;34;5;4.5;0.1;2.2;2700;1.66666666666667;0.7070663;2.342649;0.7126709;2.293149;-0.3762217;0.4663379;-0.3763503;0.4848752;
637953193975701839;1441.702;34;5;4.5;0.1;2.2;2198;2.04731574158326;-0.9526277;0.9499994;-0.9182304;0.9542086;0.7070663;2.342649;0.7126709;2.293149;
637953193991688011;1443.301;34;5;4.5;0.1;2.2;1599;2.81425891181989;1.083289;1.691013;1.044202;1.664294;-0.9526277;0.9499994;-0.9182304;0.9542086;
637953194018684079;1446;34;5;4.5;0.1;2.2;2699;1.66728417932568;-1.083289;1.691012;-1.056255;1.655858;1.083289;1.691013;1.044202;1.664294;
637953194051771516;1449.309;34;5;4.5;0.1;2.2;3309;1.3599274705349;0.9526281;0.9500003;0.9415366;0.9677754;-1.083289;1.691012;-1.056255;1.655858;
637953194079757813;1452.108;34;5;4.5;0.1;2.2;2798;1.60829163688349;-0.7070671;2.342648;-0.6943222;2.339113;0.9526281;0.9500003;0.9415366;0.9677754;
637953194099752306;1454.107;34;5;4.5;0.1;2.2;1999;2.25112556278139;0.3762226;0.4663382;0.3662453;0.4730734;-0.7070671;2.342648;-0.6943222;2.339113;
637953194116746125;1455.806;34;5;1.5;1.1;2;700;2.14285714285714;-0.3420197;0.5603072;-0.2411932;0.9213026;0;2.5;0.1658079;2.10602;
637953194122747475;1456.406;34;5;1.5;1.1;2;600;2.5;0.6427875;2.266045;0.4744756;2.055129;-0.3420197;0.5603072;-0.2411932;0.9213026;
637953194129739048;1457.106;34;5;1.5;1.1;2;700;2.14285714285714;-0.8660251;0.9999995;-0.8400033;1.151251;0.6427875;2.266045;0.4744756;2.055129;
637953194136740619;1457.806;34;5;1.5;1.1;2;700;2.14285714285714;0.9848077;1.673648;0.6841107;1.847604;-0.8660251;0.9999995;-0.8400033;1.151251;
637953194153724440;1459.505;34;5;1.5;1.1;2;1699;0.882872277810477;-0.9848078;1.673648;-0.5847298;1.660772;0.9848077;1.673648;0.6841107;1.847604;
637953194163726687;1460.504;34;5;1.5;1.1;2;1000;1.5;0.8660256;1;0.4300542;1.185077;-0.9848078;1.673648;-0.5847298;1.660772;
637953194170718259;1461.204;34;5;1.5;1.1;2;700;2.14285714285714;-0.6427882;2.266044;-0.4182213;2.012146;0.8660256;1;0.4300542;1.185077;
637953194181710731;1462.303;34;5;1.5;1.1;2;1099;1.36487716105551;0.3420205;0.5603075;0.1826848;0.8468364;-0.6427882;2.266044;-0.4182213;2.012146;
637953194209817054;1465.113;34;5;3;0.2;1.4;1699;1.76574455562095;-0.2394138;0.8422151;-0.1824599;0.8810177;0;2.2;0.01502282;2.161089;
637953194222809971;1466.412;34;5;3;0.2;1.4;1299;2.3094688221709;0.4499513;2.036231;0.4245993;2.070098;-0.2394138;0.8422151;-0.1824599;0.8810177;
637953194235802893;1467.712;34;5;3;0.2;1.4;1300;2.30769230769231;-0.6062176;1.15;-0.6377751;1.156822;0.4499513;2.036231;0.4245993;2.070098;
637953194248795809;1469.011;34;5;3;0.2;1.4;1299;2.3094688221709;0.6893654;1.621554;0.6954244;1.627693;-0.6062176;1.15;-0.6377751;1.156822;
637953194260793581;1470.211;34;5;3;0.2;1.4;1200;2.5;-0.6893655;1.621553;-0.6916164;1.626725;0.6893654;1.621554;0.6954244;1.627693;
637953194268794150;1471.011;34;5;3;0.2;1.4;800;3.75;0.6062179;1.15;0.6355439;1.173694;-0.6893655;1.621553;-0.6916164;1.626725;
637953194281895173;1472.321;34;5;3;0.2;1.4;1310;2.29007633587786;-0.4499517;2.036231;-0.3845691;2.002001;0.6062179;1.15;0.6355439;1.173694;
637953194293884241;1473.52;34;5;3;0.2;1.4;1199;2.50208507089241;0.2394144;0.8422153;0.2139986;0.9125427;-0.4499517;2.036231;-0.3845691;2.002001;
637953194336862782;1477.818;34;5;4;0.1;1.4;2298;1.74064403829417;-0.2394138;0.8422151;-0.2171147;0.8646337;0;2.2;-0.001055864;2.178031;
637953194361850165;1480.317;34;5;4;0.1;1.4;2499;1.60064025610244;0.4499513;2.036231;0.4336971;2.007548;-0.2394138;0.8422151;-0.2171147;0.8646337;
637953194389839407;1483.116;34;5;4;0.1;1.4;2798;1.42959256611866;-0.6062176;1.15;-0.5886253;1.169258;0.4499513;2.036231;0.4336971;2.007548;
637953194401948599;1484.327;34;5;4;0.1;1.4;1211;3.30305532617671;0.6893654;1.621554;0.6490493;1.610555;-0.6062176;1.15;-0.5886253;1.169258;
637953194425938319;1486.725;34;5;4;0.1;1.4;2399;1.66736140058358;-0.6893655;1.621553;-0.6572831;1.611048;0.6893654;1.621554;0.6490493;1.610555;
637953194444928585;1488.624;34;5;4;0.1;1.4;1899;2.10637177461822;0.6062179;1.15;0.5877909;1.176551;-0.6893655;1.621553;-0.6572831;1.611048;
637953194469917851;1491.123;34;5;4;0.1;1.4;2499;1.60064025610244;-0.4499517;2.036231;-0.4504604;1.997573;0.6062179;1.15;0.5877909;1.176551;
637953194490907599;1493.223;34;5;4;0.1;1.4;2099;1.90566936636494;0.2394144;0.8422153;0.2351877;0.8632593;-0.4499517;2.036231;-0.4504604;1.997573;
637953194510897401;1495.221;34;5;2.5;0.3;1.4;1000;2.5;-0.2394138;0.8422151;-0.1584155;0.9478403;0;2.2;0.02589479;2.129303;
637953194519001598;1496.032;34;5;2.5;0.3;1.4;811;3.0826140567201;0.4499513;2.036231;0.3525124;2.071865;-0.2394138;0.8422151;-0.1584155;0.9478403;
637953194542996991;1498.431;34;5;2.5;0.3;1.4;2399;1.04210087536474;-0.6062176;1.15;-0.553151;1.117795;0.4499513;2.036231;0.3525124;2.071865;
637953194558980587;1500.03;34;5;2.5;0.3;1.4;1599;1.56347717323327;0.6893654;1.621554;0.5880304;1.583097;-0.6062176;1.15;-0.553151;1.117795;
637953194575974404;1501.729;34;5;2.5;0.3;1.4;1699;1.47145379635079;-0.6893655;1.621553;-0.6174193;1.599818;0.6893654;1.621554;0.5880304;1.583097;
637953194589967551;1503.129;34;5;2.5;0.3;1.4;1399;1.78699070764832;0.6062179;1.15;0.556582;1.230224;-0.6893655;1.621553;-0.6174193;1.599818;
637953194601970251;1504.328;34;5;2.5;0.3;1.4;1200;2.08333333333333;-0.4499517;2.036231;-0.4040787;2.048999;0.6062179;1.15;0.556582;1.230224;
637953194613952944;1505.528;34;5;2.5;0.3;1.4;1199;2.08507089241034;0.2394144;0.8422153;0.2508221;0.8797503;-0.4499517;2.036231;-0.4040787;2.048999;
637953195190188826;1563.151;34;6;3.5;0.2;2;1405;2.49110320284698;-0.3420197;0.5603072;-0.3084928;0.6506184;0;2.5;-0.02845528;2.467808;
637953195204131953;1564.545;34;6;3.5;0.2;2;1394;2.51076040172166;0.6427875;2.266045;0.6061795;2.256864;-0.3420197;0.5603072;-0.3084928;0.6506184;
637953195217174893;1565.849;34;6;3.5;0.2;2;1304;2.6840490797546;-0.8660251;0.9999995;-0.8951591;1.013751;0.6427875;2.266045;0.6061795;2.256864;
637953195235118927;1567.643;34;6;3.5;0.2;2;1794;1.95094760312152;0.9848077;1.673648;0.9173914;1.671109;-0.8660251;0.9999995;-0.8951591;1.013751;
637953195248221871;1568.954;34;6;3.5;0.2;2;1311;2.6697177726926;-0.9848078;1.673648;-0.921342;1.66416;0.9848077;1.673648;0.9173914;1.671109;
637953195262215023;1570.353;34;6;3.5;0.2;2;1399;2.50178699070765;0.8660256;1;0.8545887;1.021918;-0.9848078;1.673648;-0.921342;1.66416;
637953195277208393;1571.853;34;6;3.5;0.2;2;1499;2.33488992661775;-0.6427882;2.266044;-0.6266859;2.236811;0.8660256;1;0.8545887;1.021918;
637953195297192882;1573.851;34;6;3.5;0.2;2;1999;1.75087543771886;0.3420205;0.5603075;0.3384354;0.6098851;-0.6427882;2.266044;-0.6266859;2.236811;
637953195341182774;1578.25;34;6;4.5;0.1;2.2;1999;2.25112556278139;-0.3762217;0.4663379;-0.3920576;0.4865252;0;2.6;0.00373843;2.615883;
637953195356166146;1579.749;34;6;4.5;0.1;2.2;1499;3.00200133422282;0.7070663;2.342649;0.7001918;2.301177;-0.3762217;0.4663379;-0.3920576;0.4865252;
637953195367218628;1580.853;34;6;4.5;0.1;2.2;1105;4.07239819004525;-0.9526277;0.9499994;-0.9391882;0.9225128;0.7070663;2.342649;0.7001918;2.301177;
637953195379161314;1582.048;34;6;4.5;0.1;2.2;1194;3.76884422110553;1.083289;1.691013;1.063949;1.722617;-0.9526277;0.9499994;-0.9391882;0.9225128;
637953195394434748;1583.583;34;6;4.5;0.1;2.2;1535;2.93159609120521;-1.083289;1.691012;-1.050255;1.653624;1.083289;1.691013;1.063949;1.722617;
637953195422248390;1586.357;34;6;4.5;0.1;2.2;2774;1.62220620043259;0.9526281;0.9500003;0.9190466;0.9499707;-1.083289;1.691012;-1.050255;1.653624;
637953195452241504;1589.356;34;6;4.5;0.1;2.2;2999;1.50050016672224;-0.7070671;2.342648;-0.6855919;2.312808;0.9526281;0.9500003;0.9190466;0.9499707;
637953195475224139;1591.655;34;6;4.5;0.1;2.2;2299;1.9573727707699;0.3762226;0.4663382;0.3714703;0.4923977;-0.7070671;2.342648;-0.6855919;2.312808;
637953195519354060;1596.067;34;6;2.5;0.3;1.4;2314;1.08038029386344;-0.2394138;0.8422151;-0.235884;0.9414947;0;2.2;-0.004220925;2.150293;
637953195532306973;1597.363;34;6;2.5;0.3;1.4;1296;1.92901234567901;0.4499513;2.036231;0.4323639;2.063808;-0.2394138;0.8422151;-0.235884;0.9414947;
637953195545299890;1598.662;34;6;2.5;0.3;1.4;1299;1.92455735180908;-0.6062176;1.15;-0.5442428;1.215031;0.4499513;2.036231;0.4323639;2.063808;
637953195556302369;1599.762;34;6;2.5;0.3;1.4;1100;2.27272727272727;0.6893654;1.621554;0.6007085;1.616522;-0.6062176;1.15;-0.5442428;1.215031;
637953195570295513;1601.161;34;6;2.5;0.3;1.4;1399;1.78699070764832;-0.6893655;1.621553;-0.6218336;1.544263;0.6893654;1.621554;0.6007085;1.616522;
637953195589399812;1603.072;34;6;2.5;0.3;1.4;1911;1.30821559392988;0.6062179;1.15;0.5152494;1.197954;-0.6893655;1.621553;-0.6218336;1.544263;
637953195603332945;1604.465;34;6;2.5;0.3;1.4;1393;1.79468772433597;-0.4499517;2.036231;-0.4154333;2.036959;0.6062179;1.15;0.5152494;1.197954;
637953195616265852;1605.759;34;6;2.5;0.3;1.4;1294;1.93199381761978;0.2394144;0.8422153;0.1976817;0.8801378;-0.4499517;2.036231;-0.4154333;2.036959;
637953195636270349;1607.758;34;6;2;0.6;1.8;895;2.23463687150838;-0.3078177;0.6542765;-0.2440198;0.945866;0;2.4;0.05556823;2.249295;
637953195648253044;1608.957;34;6;2;0.6;1.8;1199;1.66805671392827;0.5785087;2.18944;0.3661418;2.060726;-0.3078177;0.6542765;-0.2440198;0.945866;
637953195657255066;1609.857;34;6;2;0.6;1.8;900;2.22222222222222;-0.7794226;1.05;-0.569521;1.19557;0.5785087;2.18944;0.3661418;2.060726;
637953195666247090;1610.757;34;6;2;0.6;1.8;900;2.22222222222222;0.8863269;1.656283;0.774747;1.625969;-0.7794226;1.05;-0.569521;1.19557;
637953195674348912;1611.567;34;6;2;0.6;1.8;810;2.46913580246914;-0.8863271;1.656283;-0.8350273;1.528504;0.8863269;1.656283;0.774747;1.625969;
637953195683350936;1612.467;34;6;2;0.6;1.8;900;2.22222222222222;0.779423;1.05;0.6678091;1.207836;-0.8863271;1.656283;-0.8350273;1.528504;
637953195692342955;1613.366;34;6;2;0.6;1.8;900;2.22222222222222;-0.5785094;2.18944;-0.4124118;2.118888;0.779423;1.05;0.6678091;1.207836;
637953195701344981;1614.266;34;6;2;0.6;1.8;900;2.22222222222222;0.3078185;0.6542768;0.2733142;0.8184161;-0.5785094;2.18944;-0.4124118;2.118888;
637953195718338801;1615.965;34;6;1.5;1.1;2;900;1.66666666666667;-0.3420197;0.5603072;-0.2800465;0.8873827;0;2.5;0.1291823;2.282174;
637953195724720237;1616.612;34;6;1.5;1.1;2;646;2.32198142414861;0.6427875;2.266045;0.4167421;1.803819;-0.3420197;0.5603072;-0.2800465;0.8873827;
637953195734327448;1617.565;34;6;1.5;1.1;2;953;1.57397691500525;-0.8660251;0.9999995;-0.4451818;1.22694;0.6427875;2.266045;0.4167421;1.803819;
637953195742319293;1618.364;34;6;1.5;1.1;2;800;1.875;0.9848077;1.673648;0.7089829;1.55909;-0.8660251;0.9999995;-0.4451818;1.22694;
637953195750368749;1619.169;34;6;1.5;1.1;2;805;1.86335403726708;-0.9848078;1.673648;-0.708928;1.359537;0.9848077;1.673648;0.7089829;1.55909;
637953195757312132;1619.863;34;6;1.5;1.1;2;694;2.16138328530259;0.8660256;1;0.4375312;1.238626;-0.9848078;1.673648;-0.708928;1.359537;
637953195779417126;1622.073;34;6;1.5;1.1;2;2210;0.678733031674208;-0.6427882;2.266044;-0.341432;1.978374;0.8660256;1;0.4375312;1.238626;
637953195788413307;1622.973;34;6;1.5;1.1;2;900;1.66666666666667;0.3420205;0.5603075;0.05389502;0.9373307;-0.6427882;2.266044;-0.341432;1.978374;
637953195814402618;1625.572;34;6;3;0.2;1.4;1499;2.00133422281521;-0.2394138;0.8422151;-0.2044307;0.8644953;0;2.2;0.007502142;2.174658;
637953195826403091;1626.772;34;6;3;0.2;1.4;1199;2.50208507089241;0.4499513;2.036231;0.4263294;2.031087;-0.2394138;0.8422151;-0.2044307;0.8644953;
637953195837392018;1627.871;34;6;3;0.2;1.4;1099;2.72975432211101;-0.6062176;1.15;-0.5738789;1.104433;0.4499513;2.036231;0.4263294;2.031087;
637953195847442895;1628.875;34;6;3;0.2;1.4;1004;2.98804780876494;0.6893654;1.621554;0.6793326;1.579338;-0.6062176;1.15;-0.5738789;1.104433;
637953195858380968;1629.97;34;6;3;0.2;1.4;1095;2.73972602739726;-0.6893655;1.621553;-0.7185954;1.576254;0.6893654;1.621554;0.6793326;1.579338;
637953195867381092;1630.869;34;6;3;0.2;1.4;899;3.33704115684093;0.6062179;1.15;0.567196;1.185345;-0.6893655;1.621553;-0.7185954;1.576254;
637953195877373009;1631.869;34;6;3;0.2;1.4;1000;3;-0.4499517;2.036231;-0.4059653;2.065219;0.6062179;1.15;0.567196;1.185345;
637953195888368266;1632.969;34;6;3;0.2;1.4;1099;2.72975432211101;0.2394144;0.8422153;0.2440585;0.8428808;-0.4499517;2.036231;-0.4059653;2.065219;
637953195912353657;1635.367;34;6;4;0.1;1.4;1099;3.63967242948135;-0.2394138;0.8422151;-0.2338072;0.8606673;0;2.2;0.0313496;2.186412;
637953195930457731;1637.178;34;6;4;0.1;1.4;1810;2.20994475138122;0.4499513;2.036231;0.4497854;2.005967;-0.2394138;0.8422151;-0.2338072;0.8606673;
637953195943450651;1638.477;34;6;4;0.1;1.4;1299;3.07929176289453;-0.6062176;1.15;-0.6247396;1.155736;0.4499513;2.036231;0.4497854;2.005967;
637953195963445144;1640.477;34;6;4;0.1;1.4;2000;2;0.6893654;1.621554;0.6648656;1.613788;-0.6062176;1.15;-0.6247396;1.155736;
637953195981489200;1642.281;34;6;4;0.1;1.4;1804;2.21729490022173;-0.6893655;1.621553;-0.6785517;1.61254;0.6893654;1.621554;0.6648656;1.613788;
637953196005474595;1644.679;34;6;4;0.1;1.4;2399;1.66736140058358;0.6062179;1.15;0.5861799;1.175507;-0.6893655;1.621553;-0.6785517;1.61254;
637953196019417729;1646.074;34;6;4;0.1;1.4;1394;2.86944045911047;-0.4499517;2.036231;-0.4208294;1.997776;0.6062179;1.15;0.5861799;1.175507;
637953196042402899;1648.373;34;6;4;0.1;1.4;2299;1.73988690735102;0.2394144;0.8422153;0.2310789;0.8769498;-0.4499517;2.036231;-0.4208294;1.997776;
637953196535622502;1697.694;34;7;2.5;0.3;1.4;999;2.5025025025025;-0.2394138;0.8422151;-0.2158991;0.9029535;0;2.2;-0.01954809;2.228327;
637953196544614519;1698.594;34;7;2.5;0.3;1.4;899;2.78086763070078;0.4499513;2.036231;0.382161;1.99292;-0.2394138;0.8422151;-0.2158991;0.9029535;
637953196556609150;1699.793;34;7;2.5;0.3;1.4;1200;2.08333333333333;-0.6062176;1.15;-0.5189428;1.204883;0.4499513;2.036231;0.382161;1.99292;
637953196564610950;1700.593;34;7;2.5;0.3;1.4;800;3.125;0.6893654;1.621554;0.7242031;1.648018;-0.6062176;1.15;-0.5189428;1.204883;
637953196573612976;1701.493;34;7;2.5;0.3;1.4;900;2.77777777777778;-0.6893655;1.621553;-0.6986969;1.565842;0.6893654;1.621554;0.7242031;1.648018;
637953196581604770;1702.292;34;7;2.5;0.3;1.4;799;3.12891113892365;0.6062179;1.15;0.5461245;1.19844;-0.6893655;1.621553;-0.6986969;1.565842;
637953196594647699;1703.597;34;7;2.5;0.3;1.4;1304;1.91717791411043;-0.4499517;2.036231;-0.4441251;1.951552;0.6062179;1.15;0.5461245;1.19844;
637953196606594693;1704.791;34;7;2.5;0.3;1.4;1194;2.09380234505863;0.2394144;0.8422153;0.1928528;0.9825135;-0.4499517;2.036231;-0.4441251;1.951552;
637953196637734639;1707.905;34;7;4.5;0.1;2.2;1815;2.47933884297521;-0.3762217;0.4663379;-0.3676571;0.4664661;0;2.6;0.004348544;2.633174;
637953196658689352;1710.001;34;7;4.5;0.1;2.2;2095;2.14797136038186;0.7070663;2.342649;0.6778746;2.315843;-0.3762217;0.4663379;-0.3676571;0.4664661;
637953196674672943;1711.599;34;7;4.5;0.1;2.2;1598;2.81602002503129;-0.9526277;0.9499994;-0.9374633;0.9687979;0.7070663;2.342649;0.6778746;2.315843;
637953196689656314;1713.098;34;7;4.5;0.1;2.2;1499;3.00200133422282;1.083289;1.691013;1.034771;1.693478;-0.9526277;0.9499994;-0.9374633;0.9687979;
637953196718652837;1715.996;34;7;4.5;0.1;2.2;2899;1.55225939979303;-1.083289;1.691012;-1.060313;1.656995;1.083289;1.691013;1.034771;1.693478;
637953196734646428;1717.596;34;7;4.5;0.1;2.2;1599;2.81425891181989;0.9526281;0.9500003;0.9109511;0.9744173;-1.083289;1.691012;-1.060313;1.656995;
637953196748629575;1718.995;34;7;4.5;0.1;2.2;1399;3.21658327376698;-0.7070671;2.342648;-0.6799227;2.31427;0.9526281;0.9500003;0.9109511;0.9744173;
637953196767623844;1720.894;34;7;4.5;0.1;2.2;1899;2.3696682464455;0.3762226;0.4663382;0.3693325;0.4961516;-0.7070671;2.342648;-0.6799227;2.31427;
637953196796720387;1723.804;34;7;3;0.2;1.4;1810;1.65745856353591;-0.2394138;0.8422151;-0.2270128;0.8287731;0;2.2;-0.001844399;2.140794;
637953196810713530;1725.204;34;7;3;0.2;1.4;1399;2.14438884917798;0.4499513;2.036231;0.4201444;1.996844;-0.2394138;0.8422151;-0.2270128;0.8287731;
637953196823706452;1726.503;34;7;3;0.2;1.4;1299;2.3094688221709;-0.6062176;1.15;-0.536368;1.131376;0.4499513;2.036231;0.4201444;1.996844;
637953196833708693;1727.502;34;7;3;0.2;1.4;1000;3;0.6893654;1.621554;0.6329666;1.545748;-0.6062176;1.15;-0.536368;1.131376;
637953196850702522;1729.202;34;7;3;0.2;1.4;1700;1.76470588235294;-0.6893655;1.621553;-0.6462223;1.603074;0.6893654;1.621554;0.6329666;1.545748;
637953196862695219;1730.401;34;7;3;0.2;1.4;1200;2.5;0.6062179;1.15;0.6985824;1.168179;-0.6893655;1.621553;-0.6462223;1.603074;
637953196872687468;1731.4;34;7;3;0.2;1.4;999;3.003003003003;-0.4499517;2.036231;-0.3601193;1.996027;0.6062179;1.15;0.6985824;1.168179;
637953196887680833;1732.9;34;7;3;0.2;1.4;1500;2;0.2394144;0.8422153;0.2356327;0.8867934;-0.4499517;2.036231;-0.3601193;1.996027;
637953196907668115;1734.899;34;7;1.5;1.1;2;1099;1.36487716105551;-0.3420197;0.5603072;-0.2305637;0.9406908;0;2.5;0.1024626;2.038144;
637953196919668367;1736.099;34;7;1.5;1.1;2;1200;1.25;0.6427875;2.266045;0.4415146;2.235322;-0.3420197;0.5603072;-0.2305637;0.9406908;
637953196932658351;1737.398;34;7;1.5;1.1;2;1299;1.15473441108545;-0.8660251;0.9999995;-0.7477283;1.252914;0.6427875;2.266045;0.4415146;2.235322;
637953196941706161;1738.302;34;7;1.5;1.1;2;905;1.65745856353591;0.9848077;1.673648;0.6563096;1.77422;-0.8660251;0.9999995;-0.7477283;1.252914;
637953196951758422;1739.308;34;7;1.5;1.1;2;1005;1.49253731343284;-0.9848078;1.673648;-0.576715;1.749296;0.9848077;1.673648;0.6563096;1.77422;
637953196961810675;1740.313;34;7;1.5;1.1;2;1005;1.49253731343284;0.8660256;1;0.6356067;1.380988;-0.9848078;1.673648;-0.576715;1.749296;
637953196977804316;1741.912;34;7;1.5;1.1;2;1600;0.9375;-0.6427882;2.266044;-0.4891293;2.149873;0.8660256;1;0.6356067;1.380988;
637953196987750613;1742.906;34;7;1.5;1.1;2;994;1.50905432595573;0.3420205;0.5603075;0.1397005;0.9643703;-0.6427882;2.266044;-0.4891293;2.149873;
637953197021730435;1746.305;34;7;4;0.1;1.4;1499;2.66844563042028;-0.2394138;0.8422151;-0.2387625;0.8919863;0;2.2;0.01447601;2.168811;
637953197035723579;1747.704;34;7;4;0.1;1.4;1399;2.85918513223731;0.4499513;2.036231;0.4332527;1.990909;-0.2394138;0.8422151;-0.2387625;0.8919863;
637953197050716951;1749.203;34;7;4;0.1;1.4;1499;2.66844563042028;-0.6062176;1.15;-0.5675849;1.153543;0.4499513;2.036231;0.4332527;1.990909;
637953197064710097;1750.603;34;7;4;0.1;1.4;1400;2.85714285714286;0.6893654;1.621554;0.6703408;1.630254;-0.6062176;1.15;-0.5675849;1.153543;
637953197080813715;1752.213;34;7;4;0.1;1.4;1610;2.48447204968944;-0.6893655;1.621553;-0.6637894;1.599692;0.6893654;1.621554;0.6703408;1.630254;
637953197095807088;1753.713;34;7;4;0.1;1.4;1499;2.66844563042028;0.6062179;1.15;0.5834557;1.13646;-0.6893655;1.621553;-0.6637894;1.599692;
637953197124793605;1756.611;34;7;4;0.1;1.4;2899;1.37978613314936;-0.4499517;2.036231;-0.4195685;2.018926;0.6062179;1.15;0.5834557;1.13646;
637953197145788325;1758.71;34;7;4;0.1;1.4;2099;1.90566936636494;0.2394144;0.8422153;0.2484856;0.8196057;-0.4499517;2.036231;-0.4195685;2.018926;
637953197175765068;1761.709;34;7;3.5;0.2;2;1794;1.95094760312152;-0.3420197;0.5603072;-0.3414483;0.5889785;0;2.5;-0.01478797;2.438187;
637953197190768441;1763.208;34;7;3.5;0.2;2;1499;2.33488992661775;0.6427875;2.266045;0.6170659;2.200937;-0.3420197;0.5603072;-0.3414483;0.5889785;
637953197203751361;1764.507;34;7;3.5;0.2;2;1299;2.69438029253272;-0.8660251;0.9999995;-0.8580716;0.9648345;0.6427875;2.266045;0.6170659;2.200937;
637953197215744056;1765.707;34;7;3.5;0.2;2;1200;2.91666666666667;0.9848077;1.673648;0.9505686;1.624989;-0.8660251;0.9999995;-0.8580716;0.9648345;
637953197231747654;1767.306;34;7;3.5;0.2;2;1599;2.18886804252658;-0.9848078;1.673648;-0.915578;1.608617;0.9848077;1.673648;0.9505686;1.624989;
637953197247851272;1768.917;34;7;3.5;0.2;2;1610;2.17391304347826;0.8660256;1;0.8411847;1.062694;-0.9848078;1.673648;-0.915578;1.608617;
637953197260844192;1770.216;34;7;3.5;0.2;2;1299;2.69438029253272;-0.6427882;2.266044;-0.5794481;2.225983;0.8660256;1;0.8411847;1.062694;
637953197271831734;1771.315;34;7;3.5;0.2;2;1099;3.18471337579618;0.3420205;0.5603075;0.3246877;0.600805;-0.6427882;2.266044;-0.5794481;2.225983;
637953197327810885;1776.913;34;7;2;0.6;1.8;4798;0.416840350145894;-0.3078177;0.6542765;-0.3705424;0.8697244;0;2.4;0.1015659;2.295408;
637953197341801241;1778.312;34;7;2;0.6;1.8;1400;1.42857142857143;0.5785087;2.18944;0.4654851;2.164951;-0.3078177;0.6542765;-0.3705424;0.8697244;
637953197352802307;1779.411;34;7;2;0.6;1.8;1099;1.81983621474067;-0.7794226;1.05;-0.6332162;1.193052;0.5785087;2.18944;0.4654851;2.164951;
637953197361792961;1780.311;34;7;2;0.6;1.8;900;2.22222222222222;0.8863269;1.656283;0.6959234;1.594359;-0.7794226;1.05;-0.6332162;1.193052;
637953197371906527;1781.322;34;7;2;0.6;1.8;1011;1.9782393669634;-0.8863271;1.656283;-0.6800781;1.456778;0.8863269;1.656283;0.6959234;1.594359;
637953197383906377;1782.523;34;7;2;0.6;1.8;1201;1.66527893422148;0.779423;1.05;0.6596678;1.209193;-0.8863271;1.656283;-0.6800781;1.456778;
637953197390886308;1783.221;34;7;2;0.6;1.8;698;2.86532951289398;-0.5785094;2.18944;-0.3695869;2.068359;0.779423;1.05;0.6596678;1.209193;
637953197402939980;1784.425;34;7;2;0.6;1.8;1205;1.6597510373444;0.3078185;0.6542768;0.1958064;0.865191;-0.5785094;2.18944;-0.3695869;2.068359;
