637953094172820527;233.9222;36;0;3.5;0.2;2;2504;1.39776357827476;-0.3420197;0.5603072;-0.2856407;0.6212056;0;2.5;0.01246136;2.418692;
637953094185763437;235.2163;36;0;3.5;0.2;2;1294;2.7047913446677;0.6427875;2.266045;0.6183362;2.23541;-0.3420197;0.5603072;-0.2856407;0.6212056;
637953094200756808;236.7157;36;0;3.5;0.2;2;1499;2.33488992661775;-0.8660251;0.9999995;-0.7978061;1.04331;0.6427875;2.266045;0.6183362;2.23541;
637953094220801308;238.7199;36;0;3.5;0.2;2;2004;1.74650698602794;0.9848077;1.673648;0.9584436;1.697719;-0.8660251;0.9999995;-0.7978061;1.04331;
637953094230743550;239.7144;36;0;3.5;0.2;2;995;3.51758793969849;-0.9848078;1.673648;-0.9611034;1.634892;0.9848077;1.673648;0.9584436;1.697719;
637953094240735794;240.7139;36;0;3.5;0.2;2;999;3.5035035035035;0.8660256;1;0.849134;1.061729;-0.9848078;1.673648;-0.9611034;1.634892;
637953094251838290;241.8246;36;0;3.5;0.2;2;1111;3.15031503150315;-0.6427882;2.266044;-0.5798088;2.205707;0.8660256;1;0.849134;1.061729;
637953094263840991;243.0239;36;0;3.5;0.2;2;1199;2.91909924937448;0.3420205;0.5603075;0.3161927;0.6411401;-0.6427882;2.266044;-0.5798088;2.205707;
637953094282875270;244.9277;36;0;2.5;0.3;1.4;904;2.76548672566372;-0.2394138;0.8422151;-0.2056932;0.8745797;0;2.2;0.01794716;2.119759;
637953094292817503;245.9225;36;0;2.5;0.3;1.4;995;2.51256281407035;0.4499513;2.036231;0.4531475;1.958662;-0.2394138;0.8422151;-0.2056932;0.8745797;
637953094301819531;246.8225;36;0;2.5;0.3;1.4;900;2.77777777777778;-0.6062176;1.15;-0.5803277;1.161703;0.4499513;2.036231;0.4531475;1.958662;
637953094310821555;247.7222;36;0;2.5;0.3;1.4;900;2.77777777777778;0.6893654;1.621554;0.604294;1.656972;-0.6062176;1.15;-0.5803277;1.161703;
637953094319813573;248.6215;36;0;2.5;0.3;1.4;899;2.78086763070078;-0.6893655;1.621553;-0.6848666;1.603713;0.6893654;1.621554;0.604294;1.656972;
637953094329805822;249.6208;36;0;2.5;0.3;1.4;999;2.5025025025025;0.6062179;1.15;0.541312;1.168416;-0.6893655;1.621553;-0.6848666;1.603713;
637953094337907643;250.4316;36;0;2.5;0.3;1.4;811;3.0826140567201;-0.4499517;2.036231;-0.5077855;1.989048;0.6062179;1.15;0.541312;1.168416;
637953094345909441;251.2312;36;0;2.5;0.3;1.4;800;3.125;0.2394144;0.8422153;0.266158;0.8506187;-0.4499517;2.036231;-0.5077855;1.989048;
637953094363903489;253.0308;36;0;3;0.2;1.4;1000;3;-0.2394138;0.8422151;-0.1768615;0.8974273;0;2.2;-0.02124734;2.189256;
637953094372895509;253.9299;36;0;3;0.2;1.4;899;3.33704115684093;0.4499513;2.036231;0.4583029;2.038995;-0.2394138;0.8422151;-0.1768615;0.8974273;
637953094381887529;254.8295;36;0;3;0.2;1.4;900;3.33333333333333;-0.6062176;1.15;-0.5643884;1.213114;0.4499513;2.036231;0.4583029;2.038995;
637953094395936433;256.2342;36;0;3;0.2;1.4;1405;2.13523131672598;0.6893654;1.621554;0.631436;1.58471;-0.6062176;1.15;-0.5643884;1.213114;
637953094424879011;259.1276;36;0;3;0.2;1.4;2893;1.03698582786035;-0.6893655;1.621553;-0.6658746;1.605069;0.6893654;1.621554;0.631436;1.58471;
637953094444863523;261.1266;36;0;3;0.2;1.4;1999;1.50075037518759;0.6062179;1.15;0.5527785;1.183659;-0.6893655;1.621553;-0.6658746;1.605069;
637953094476959758;264.3365;36;0;3;0.2;1.4;3210;0.934579439252336;-0.4499517;2.036231;-0.4058619;2.023119;0.6062179;1.15;0.5527785;1.183659;
637953094492960379;265.936;36;0;3;0.2;1.4;1600;1.875;0.2394144;0.8422153;0.2254782;0.9355578;-0.4499517;2.036231;-0.4058619;2.023119;
637953094513995259;268.0393;36;0;2;0.6;1.8;1004;1.99203187250996;-0.3078177;0.6542765;-0.1388541;0.8777781;0;2.4;-0.009171787;2.240506;
637953094522937270;268.9342;36;0;2;0.6;1.8;895;2.23463687150838;0.5785087;2.18944;0.408126;2.094165;-0.3078177;0.6542765;-0.1388541;0.8777781;
637953094536930414;270.3337;36;0;2;0.6;1.8;1399;1.42959256611866;-0.7794226;1.05;-0.690236;1.159842;0.5785087;2.18944;0.408126;2.094165;
637953094554924462;272.1327;36;0;2;0.6;1.8;1799;1.11172873818788;0.8863269;1.656283;0.680406;1.740719;-0.7794226;1.05;-0.690236;1.159842;
637953094562916258;272.9322;36;0;2;0.6;1.8;799;2.50312891113892;-0.8863271;1.656283;-0.7100775;1.725129;0.8863269;1.656283;0.680406;1.740719;
637953094570918057;273.7318;36;0;2;0.6;1.8;800;2.5;0.779423;1.05;0.8270038;1.04397;-0.8863271;1.656283;-0.7100775;1.725129;
637953094580910302;274.7315;36;0;2;0.6;1.8;1000;2;-0.5785094;2.18944;-0.7749448;1.995753;0.779423;1.05;0.8270038;1.04397;
637953094590902549;275.7311;36;0;2;0.6;1.8;1000;2;0.3078185;0.6542768;0.1910222;0.911631;-0.5785094;2.18944;-0.7749448;1.995753;
637953094651996285;281.8391;36;0;4.5;0.1;2.2;1805;2.49307479224377;-0.3762217;0.4663379;-0.3851852;0.5043068;0;2.6;0.01112202;2.586149;
637953094669980329;283.6382;36;0;4.5;0.1;2.2;1799;2.50138966092273;0.7070663;2.342649;0.6936642;2.306716;-0.3762217;0.4663379;-0.3851852;0.5043068;
637953094687974374;285.4377;36;0;4.5;0.1;2.2;1800;2.5;-0.9526277;0.9499994;-0.9203484;0.9548688;0.7070663;2.342649;0.6936642;2.306716;
637953094716960891;288.3365;36;0;4.5;0.1;2.2;2899;1.55225939979303;1.083289;1.691013;1.047265;1.699264;-0.9526277;0.9499994;-0.9203484;0.9548688;
637953094735955162;290.2355;36;0;4.5;0.1;2.2;1899;2.3696682464455;-1.083289;1.691012;-1.036689;1.707574;1.083289;1.691013;1.047265;1.699264;
637953094762941231;292.9341;36;0;4.5;0.1;2.2;2699;1.66728417932568;0.9526281;0.9500003;0.9269814;0.9554932;-1.083289;1.691012;-1.036689;1.707574;
637953094786926624;295.3329;36;0;4.5;0.1;2.2;2399;1.87578157565652;-0.7070671;2.342648;-0.7149893;2.330935;0.9526281;0.9500003;0.9269814;0.9554932;
637953094865005298;303.1405;36;0;4.5;0.1;2.2;7808;0.576331967213115;0.3762226;0.4663382;0.3687042;0.4852245;-0.7070671;2.342648;-0.7149893;2.330935;
637953094912088423;307.8494;36;0;4;0.1;1.4;3309;1.20882441825325;-0.2394138;0.8422151;-0.2204633;0.8374597;0;2.2;0.009176234;2.21759;
637953094926091563;309.249;36;0;4;0.1;1.4;1400;2.85714285714286;0.4499513;2.036231;0.4124145;2.009481;-0.2394138;0.8422151;-0.2204633;0.8374597;
637953094964070107;313.0471;36;0;4;0.1;1.4;3798;1.05318588730911;-0.6062176;1.15;-0.581028;1.188128;0.4499513;2.036231;0.4124145;2.009481;
637953094980063702;314.6465;36;0;4;0.1;1.4;1599;2.50156347717323;0.6893654;1.621554;0.6816056;1.647534;-0.6062176;1.15;-0.581028;1.188128;
637953094995107084;316.1509;36;0;4;0.1;1.4;1504;2.65957446808511;-0.6893655;1.621553;-0.6478032;1.640059;0.6893654;1.621554;0.6816056;1.647534;
637953095022043142;318.8443;36;0;4;0.1;1.4;2693;1.48533234311177;0.6062179;1.15;0.587492;1.161437;-0.6893655;1.621553;-0.6478032;1.640059;
637953095035036063;320.1438;36;0;4;0.1;1.4;1299;3.07929176289453;-0.4499517;2.036231;-0.4245899;2.005728;0.6062179;1.15;0.587492;1.161437;
637953095046028534;321.2431;36;0;4;0.1;1.4;1099;3.63967242948135;0.2394144;0.8422153;0.2154159;0.8617843;-0.4499517;2.036231;-0.4245899;2.005728;
637953095074124852;324.0532;36;0;1.5;1.1;2;1910;0.785340314136126;-0.3420197;0.5603072;-0.1708518;1.01698;0;2.5;0.0638542;2.259489;
637953095088117994;325.4525;36;0;1.5;1.1;2;1399;1.07219442458899;0.6427875;2.266045;0.3743279;2.08073;-0.3420197;0.5603072;-0.1708518;1.01698;
637953095101120919;326.7519;36;0;1.5;1.1;2;1299;1.15473441108545;-0.8660251;0.9999995;-0.6067381;1.394131;0.6427875;2.266045;0.3743279;2.08073;
637953095117104516;328.3511;36;0;1.5;1.1;2;1599;0.938086303939963;0.9848077;1.673648;0.5948565;1.779207;-0.8660251;0.9999995;-0.6067381;1.394131;
637953095136098785;330.2501;36;0;1.5;1.1;2;1899;0.789889415481833;-0.9848078;1.673648;-0.6864107;1.860073;0.9848077;1.673648;0.5948565;1.779207;
637953095159083961;332.5493;36;0;1.5;1.1;2;2299;0.652457590256633;0.8660256;1;0.5817766;1.250265;-0.9848078;1.673648;-0.6864107;1.860073;
637953095172086878;333.8488;36;0;1.5;1.1;2;1299;1.15473441108545;-0.6427882;2.266044;-0.5949067;2.106622;0.8660256;1;0.5817766;1.250265;
637953095216177480;338.2578;36;0;1.5;1.1;2;4409;0.340213200272171;0.3420205;0.5603075;0.3208741;0.9071491;-0.6427882;2.266044;-0.5949067;2.106622;
637953096449730751;461.6119;36;1;2;0.6;1.8;1599;1.25078173858662;-0.3078177;0.6542765;-0.2257684;0.8731456;0;2.4;0.01946856;2.375862;
637953096463723899;463.0114;36;1;2;0.6;1.8;1400;1.42857142857143;0.5785087;2.18944;0.5532982;2.344343;-0.3078177;0.6542765;-0.2257684;0.8731456;
637953096482718167;464.9105;36;1;2;0.6;1.8;1899;1.05318588730911;-0.7794226;1.05;-0.6521788;1.186114;0.5785087;2.18944;0.5532982;2.344343;
637953096495701086;466.2094;36;1;2;0.6;1.8;1299;1.53964588144727;0.8863269;1.656283;0.7728307;1.776378;-0.7794226;1.05;-0.6521788;1.186114;
637953096503812904;467.0205;36;1;2;0.6;1.8;811;2.46609124537608;-0.8863271;1.656283;-0.8965805;1.779624;0.8863269;1.656283;0.7728307;1.776378;
637953096512704908;467.9089;36;1;2;0.6;1.8;888;2.25225225225225;0.779423;1.05;0.6384907;1.154815;-0.8863271;1.656283;-0.8965805;1.779624;
637953096521806954;468.8196;36;1;2;0.6;1.8;911;2.1953896816685;-0.5785094;2.18944;-0.5740334;2.120359;0.779423;1.05;0.6384907;1.154815;
637953096530798976;469.7191;36;1;2;0.6;1.8;900;2.22222222222222;0.3078185;0.6542768;0.1969485;0.7220647;-0.5785094;2.18944;-0.5740334;2.120359;
637953096563786394;473.0175;36;1;1.5;1.1;2;900;1.66666666666667;-0.3420197;0.5603072;-0.2193082;1.006332;0;2.5;-0.01634622;2.17638;
637953096572788417;473.9172;36;1;1.5;1.1;2;900;1.66666666666667;0.6427875;2.266045;0.4612127;1.996166;-0.3420197;0.5603072;-0.2193082;1.006332;
637953096582780664;474.9168;36;1;1.5;1.1;2;1000;1.5;-0.8660251;0.9999995;-0.5771279;1.234955;0.6427875;2.266045;0.4612127;1.996166;
637953096590772462;475.7162;36;1;1.5;1.1;2;799;1.87734668335419;0.9848077;1.673648;0.6963888;1.750304;-0.8660251;0.9999995;-0.5771279;1.234955;
637953096597774037;476.4159;36;1;1.5;1.1;2;700;2.14285714285714;-0.9848078;1.673648;-0.56585;1.765919;0.9848077;1.673648;0.6963888;1.750304;
637953096606766050;477.3156;36;1;1.5;1.1;2;900;1.66666666666667;0.8660256;1;0.4634816;1.256953;-0.9848078;1.673648;-0.56585;1.765919;
637953096612757404;477.9152;36;1;1.5;1.1;2;600;2.5;-0.6427882;2.266044;-0.3221142;2.05315;0.8660256;1;0.4634816;1.256953;
637953096620759203;478.7151;36;1;1.5;1.1;2;800;1.875;0.3420205;0.5603075;0.1998076;0.772264;-0.6427882;2.266044;-0.3221142;2.05315;
637953096660743240;482.7131;36;1;4;0.1;1.4;1499;2.66844563042028;-0.2394138;0.8422151;-0.2275704;0.8679012;0;2.2;0.01582397;2.171607;
637953096685837045;485.2231;36;1;4;0.1;1.4;2510;1.59362549800797;0.4499513;2.036231;0.4230057;2.016999;-0.2394138;0.8422151;-0.2275704;0.8679012;
637953096705831540;487.2222;36;1;4;0.1;1.4;1999;2.00100050025012;-0.6062176;1.15;-0.6012997;1.143789;0.4499513;2.036231;0.4230057;2.016999;
637953096718823831;488.5215;36;1;4;0.1;1.4;1299;3.07929176289453;0.6893654;1.621554;0.6562291;1.634852;-0.6062176;1.15;-0.6012997;1.143789;
637953096737057929;490.3517;36;1;4;0.1;1.4;1830;2.18579234972678;-0.6893655;1.621553;-0.7298536;1.607124;0.6893654;1.621554;0.6562291;1.634852;
637953096753811695;492.0197;36;1;4;0.1;1.4;1668;2.39808153477218;0.6062179;1.15;0.6008406;1.176068;-0.6893655;1.621553;-0.7298536;1.607124;
637953096775796639;494.2188;36;1;4;0.1;1.4;2199;1.81900864029104;-0.4499517;2.036231;-0.408628;2.026848;0.6062179;1.15;0.6008406;1.176068;
637953096800792256;496.7184;36;1;4;0.1;1.4;2500;1.6;0.2394144;0.8422153;0.2378382;0.8405288;-0.4499517;2.036231;-0.408628;2.026848;
637953096818886327;498.5279;36;1;2.5;0.3;1.4;999;2.5025025025025;-0.2394138;0.8422151;-0.2456504;0.9269825;0;2.2;0.007781077;2.142447;
637953096826888126;499.3276;36;1;2.5;0.3;1.4;800;3.125;0.4499513;2.036231;0.4579011;2.005408;-0.2394138;0.8422151;-0.2456504;0.9269825;
637953096841871494;500.827;36;1;2.5;0.3;1.4;1499;1.66777851901268;-0.6062176;1.15;-0.4981317;1.167036;0.4499513;2.036231;0.4579011;2.005408;
637953096853864191;502.0264;36;1;2.5;0.3;1.4;1199;2.08507089241034;0.6893654;1.621554;0.6622457;1.628258;-0.6062176;1.15;-0.4981317;1.167036;
637953096864856663;503.1258;36;1;2.5;0.3;1.4;1099;2.27479526842584;-0.6893655;1.621553;-0.6354083;1.602823;0.6893654;1.621554;0.6622457;1.628258;
637953096877849583;504.4251;36;1;2.5;0.3;1.4;1299;1.92455735180908;0.6062179;1.15;0.5718719;1.225026;-0.6893655;1.621553;-0.6354083;1.602823;
637953096901834976;506.8241;36;1;2.5;0.3;1.4;2399;1.04210087536474;-0.4499517;2.036231;-0.3737211;1.939178;0.6062179;1.15;0.5718719;1.225026;
637953096912827447;507.9235;36;1;2.5;0.3;1.4;1099;2.27479526842584;0.2394144;0.8422153;0.1626108;0.9413164;-0.4499517;2.036231;-0.3737211;1.939178;
637953096959928039;512.6326;36;1;3.5;0.2;2;1710;2.04678362573099;-0.3420197;0.5603072;-0.3246358;0.6127706;0;2.5;-0.004307241;2.437226;
637953096972250804;513.8727;36;1;3.5;0.2;2;1240;2.82258064516129;0.6427875;2.266045;0.5916063;2.180123;-0.3420197;0.5603072;-0.3246358;0.6127706;
637953096984913656;515.1315;36;1;3.5;0.2;2;1259;2.77998411437649;-0.8660251;0.9999995;-0.7807087;1.036752;0.6427875;2.266045;0.5916063;2.180123;
637953096997905542;516.431;36;1;3.5;0.2;2;1299;2.69438029253272;0.9848077;1.673648;0.9112886;1.629802;-0.8660251;0.9999995;-0.7807087;1.036752;
637953097008905082;517.5305;36;1;3.5;0.2;2;1099;3.18471337579618;-0.9848078;1.673648;-0.949043;1.616586;0.9848077;1.673648;0.9112886;1.629802;
637953097018897329;518.5301;36;1;3.5;0.2;2;1000;3.5;0.8660256;1;0.8726274;1.047575;-0.9848078;1.673648;-0.949043;1.616586;
637953097032000272;519.8405;36;1;3.5;0.2;2;1310;2.67175572519084;-0.6427882;2.266044;-0.6141476;2.235171;0.8660256;1;0.8726274;1.047575;
637953097050991861;521.7396;36;1;3.5;0.2;2;1899;1.84307530279094;0.3420205;0.5603075;0.3362661;0.6547066;-0.6427882;2.266044;-0.6141476;2.235171;
637953097105966356;527.237;36;1;4.5;0.1;2.2;2399;1.87578157565652;-0.3762217;0.4663379;-0.3540891;0.4514701;0;2.6;-0.006805172;2.579916;
637953097123960402;529.0362;36;1;4.5;0.1;2.2;1799;2.50138966092273;0.7070663;2.342649;0.7006616;2.362928;-0.3762217;0.4663379;-0.3540891;0.4514701;
637953097146955570;531.3354;36;1;4.5;0.1;2.2;2299;1.9573727707699;-0.9526277;0.9499994;-0.9281173;0.9427031;0.7070663;2.342649;0.7006616;2.362928;
637953097163049188;532.9455;36;1;4.5;0.1;2.2;1610;2.79503105590062;1.083289;1.691013;1.051198;1.695028;-0.9526277;0.9499994;-0.9281173;0.9427031;
637953097186044358;535.2444;36;1;4.5;0.1;2.2;2299;1.9573727707699;-1.083289;1.691012;-1.053883;1.70718;1.083289;1.691013;1.051198;1.695028;
637953097205028626;537.1437;36;1;4.5;0.1;2.2;1899;2.3696682464455;0.9526281;0.9500003;0.9163061;0.9478989;-1.083289;1.691012;-1.053883;1.70718;
637953097225023123;539.1425;36;1;4.5;0.1;2.2;1999;2.25112556278139;-0.7070671;2.342648;-0.704545;2.328866;0.9526281;0.9500003;0.9163061;0.9478989;
637953097260010989;542.6413;36;1;4.5;0.1;2.2;3499;1.28608173763933;0.3762226;0.4663382;0.3925872;0.4931866;-0.7070671;2.342648;-0.704545;2.328866;
637953097293988628;546.0394;36;1;3;0.2;1.4;1899;1.57977883096367;-0.2394138;0.8422151;-0.2158661;0.8279749;0;2.2;0.04987375;2.215833;
637953097304991102;547.139;36;1;3;0.2;1.4;1100;2.72727272727273;0.4499513;2.036231;0.4454651;2.07975;-0.2394138;0.8422151;-0.2158661;0.8279749;
637953097317093824;548.3497;36;1;3;0.2;1.4;1211;2.47729149463254;-0.6062176;1.15;-0.5445551;1.177578;0.4499513;2.036231;0.4454651;2.07975;
637953097326085845;549.249;36;1;3;0.2;1.4;899;3.33704115684093;0.6893654;1.621554;0.6995081;1.607045;-0.6062176;1.15;-0.5445551;1.177578;
637953097339078766;550.5483;36;1;3;0.2;1.4;1299;2.3094688221709;-0.6893655;1.621553;-0.6319088;1.626051;0.6893654;1.621554;0.6995081;1.607045;
637953097351081466;551.749;36;1;3;0.2;1.4;1201;2.49791840133222;0.6062179;1.15;0.6028723;1.15199;-0.6893655;1.621553;-0.6319088;1.626051;
637953097361078766;552.7476;36;1;3;0.2;1.4;999;3.003003003003;-0.4499517;2.036231;-0.4698023;2.032676;0.6062179;1.15;0.6028723;1.15199;
637953097373069643;553.9473;36;1;3;0.2;1.4;1200;2.5;0.2394144;0.8422153;0.2883027;0.9241974;-0.4499517;2.036231;-0.4698023;2.032676;
637953098109412370;627.5798;36;2;3.5;0.2;2;1399;2.50178699070765;-0.3420197;0.5603072;-0.3234155;0.6020461;0;2.5;0.05474056;2.455768;
637953098126406192;629.2793;36;2;3.5;0.2;2;1699;2.06003531489111;0.6427875;2.266045;0.5999511;2.232648;-0.3420197;0.5603072;-0.3234155;0.6020461;
637953098142389785;630.8782;36;2;3.5;0.2;2;1599;2.18886804252658;-0.8660251;0.9999995;-0.7966787;1.042829;0.6427875;2.266045;0.5999511;2.232648;
637953098156392933;632.2778;36;2;3.5;0.2;2;1400;2.5;0.9848077;1.673648;0.9221025;1.698022;-0.8660251;0.9999995;-0.7966787;1.042829;
637953098171386306;633.778;36;2;3.5;0.2;2;1500;2.33333333333333;-0.9848078;1.673648;-0.9521134;1.688443;0.9848077;1.673648;0.9221025;1.698022;
637953098189370346;635.5765;36;2;3.5;0.2;2;1799;1.94552529182879;0.8660256;1;0.8910083;1.017836;-0.9848078;1.673648;-0.9521134;1.688443;
637953098207364394;637.3753;36;2;3.5;0.2;2;1799;1.94552529182879;-0.6427882;2.266044;-0.5909011;2.228022;0.8660256;1;0.8910083;1.017836;
637953098231459813;639.7852;36;2;3.5;0.2;2;2410;1.45228215767635;0.3420205;0.5603075;0.3194491;0.6056758;-0.6427882;2.266044;-0.5909011;2.228022;
637953098284431720;645.0827;36;2;3;0.2;1.4;3998;0.750375187593797;-0.2394138;0.8422151;-0.2157924;0.8764874;0;2.2;-0.01860606;2.135803;
637953098303425990;646.9819;36;2;3;0.2;1.4;1899;1.57977883096367;0.4499513;2.036231;0.4865173;2.062038;-0.2394138;0.8422151;-0.2157924;0.8764874;
637953098323420487;648.9811;36;2;3;0.2;1.4;1999;1.50075037518759;-0.6062176;1.15;-0.6054789;1.180654;0.4499513;2.036231;0.4865173;2.062038;
637953098356407903;652.2797;36;2;3;0.2;1.4;3299;0.9093664746893;0.6893654;1.621554;0.6468911;1.665388;-0.6062176;1.15;-0.6054789;1.180654;
637953098396506354;656.2892;36;2;3;0.2;1.4;4009;0.74831628835121;-0.6893655;1.621553;-0.6837286;1.605846;0.6893654;1.621554;0.6468911;1.665388;
637953098413485411;657.9881;36;2;3;0.2;1.4;1699;1.76574455562095;0.6062179;1.15;0.5798309;1.245657;-0.6893655;1.621553;-0.6837286;1.605846;
637953098452470420;661.886;36;2;3;0.2;1.4;3898;0.769625448948179;-0.4499517;2.036231;-0.4551584;1.978154;0.6062179;1.15;0.5798309;1.245657;
637953098466462169;663.2855;36;2;3;0.2;1.4;1399;2.14438884917798;0.2394144;0.8422153;0.1710489;0.9068201;-0.4499517;2.036231;-0.4551584;1.978154;
637953098556532421;672.2924;36;2;4.5;0.1;2.2;4198;1.07193901858028;-0.3762217;0.4663379;-0.3544621;0.4752146;0;2.6;-0.03237915;2.577678;
637953098587519388;675.3912;36;2;4.5;0.1;2.2;3099;1.45208131655373;0.7070663;2.342649;0.6851228;2.32161;-0.3762217;0.4663379;-0.3544621;0.4752146;
637953098614515457;678.09;36;2;4.5;0.1;2.2;2699;1.66728417932568;-0.9526277;0.9499994;-0.933085;0.9558802;0.7070663;2.342649;0.6851228;2.32161;
637953098638610874;680.4998;36;2;4.5;0.1;2.2;2410;1.86721991701245;1.083289;1.691013;1.065139;1.723607;-0.9526277;0.9499994;-0.933085;0.9558802;
637953098661606044;682.7992;36;2;4.5;0.1;2.2;2299;1.9573727707699;-1.083289;1.691012;-1.057059;1.696351;1.083289;1.691013;1.065139;1.723607;
637953098686581661;685.2977;36;2;4.5;0.1;2.2;2499;1.80072028811525;0.9526281;0.9500003;0.9195718;0.9748821;-1.083289;1.691012;-1.057059;1.696351;
637953098706576153;687.2968;36;2;4.5;0.1;2.2;1999;2.25112556278139;-0.7070671;2.342648;-0.7135377;2.336406;0.9526281;0.9500003;0.9195718;0.9748821;
637953098737563125;690.3958;36;2;4.5;0.1;2.2;3099;1.45208131655373;0.3762226;0.4663382;0.3816778;0.5141153;-0.7070671;2.342648;-0.7135377;2.336406;
637953098770652740;693.7048;36;2;4;0.1;1.4;1579;2.53324889170361;-0.2394138;0.8422151;-0.2393697;0.8638108;0;2.2;-0.04388952;2.198197;
637953098789647003;695.6041;36;2;4;0.1;1.4;1899;2.10637177461822;0.4499513;2.036231;0.4845959;2.024463;-0.2394138;0.8422151;-0.2393697;0.8638108;
637953098808643401;697.5033;36;2;4;0.1;1.4;1899;2.10637177461822;-0.6062176;1.15;-0.6077421;1.135762;0.4499513;2.036231;0.4845959;2.024463;
637953098820635440;698.7027;36;2;4;0.1;1.4;1199;3.33611342785655;0.6893654;1.621554;0.6831995;1.641721;-0.6062176;1.15;-0.6077421;1.135762;
637953098842633106;700.9017;36;2;4;0.1;1.4;2199;1.81900864029104;-0.6893655;1.621553;-0.700568;1.633703;0.6893654;1.621554;0.6831995;1.641721;
637953098865728297;703.2119;36;2;4;0.1;1.4;2310;1.73160173160173;0.6062179;1.15;0.5799015;1.153968;-0.6893655;1.621553;-0.700568;1.633703;
637953098884722570;705.1108;36;2;4;0.1;1.4;1899;2.10637177461822;-0.4499517;2.036231;-0.440075;2.051029;0.6062179;1.15;0.5799015;1.153968;
637953098906707512;707.3099;36;2;4;0.1;1.4;2199;1.81900864029104;0.2394144;0.8422153;0.2339836;0.8770831;-0.4499517;2.036231;-0.440075;2.051029;
637953098934703806;710.1089;36;2;2.5;0.3;1.4;1599;1.56347717323327;-0.2394138;0.8422151;-0.2262923;0.8767749;0;2.2;0.01495722;2.144697;
637953098945696279;711.2083;36;2;2.5;0.3;1.4;1099;2.27479526842584;0.4499513;2.036231;0.4511482;1.969726;-0.2394138;0.8422151;-0.2262923;0.8767749;
637953098958689199;712.5075;36;2;2.5;0.3;1.4;1299;1.92455735180908;-0.6062176;1.15;-0.6008575;1.207002;0.4499513;2.036231;0.4511482;1.969726;
637953098975693022;714.2085;36;2;2.5;0.3;1.4;1701;1.46972369194591;0.6893654;1.621554;0.6424596;1.627584;-0.6062176;1.15;-0.6008575;1.207002;
637953098990676396;715.7063;36;2;2.5;0.3;1.4;1498;1.66889185580774;-0.6893655;1.621553;-0.5757059;1.619059;0.6893654;1.621554;0.6424596;1.627584;
637953099004659535;717.1053;36;2;2.5;0.3;1.4;1399;1.78699070764832;0.6062179;1.15;0.5162768;1.226108;-0.6893655;1.621553;-0.5757059;1.619059;
637953099027764730;719.4152;36;2;2.5;0.3;1.4;2310;1.08225108225108;-0.4499517;2.036231;-0.4247338;2.168382;0.6062179;1.15;0.5162768;1.226108;
637953099047759229;721.4147;36;2;2.5;0.3;1.4;1999;1.25062531265633;0.2394144;0.8422153;0.2064842;0.9514828;-0.4499517;2.036231;-0.4247338;2.168382;
637953099069744168;723.6137;36;2;1.5;1.1;2;1200;1.25;-0.3420197;0.5603072;-0.1907981;1.005025;0;2.5;0.09401674;2.291338;
637953099078746191;724.5131;36;2;1.5;1.1;2;899;1.66852057842047;0.6427875;2.266045;0.4070835;2.105553;-0.3420197;0.5603072;-0.1907981;1.005025;
637953099096730234;726.3125;36;2;1.5;1.1;2;1799;0.833796553640912;-0.8660251;0.9999995;-0.7436787;1.430098;0.6427875;2.266045;0.4070835;2.105553;
637953099115729184;728.2116;36;2;1.5;1.1;2;1899;0.789889415481833;0.9848077;1.673648;0.6012451;1.696094;-0.8660251;0.9999995;-0.7436787;1.430098;
637953099131722771;729.8107;36;2;1.5;1.1;2;1599;0.938086303939963;-0.9848078;1.673648;-0.7271553;1.708016;0.9848077;1.673648;0.6012451;1.696094;
637953099145715913;731.2101;36;2;1.5;1.1;2;1399;1.07219442458899;0.8660256;1;0.7536566;1.348461;-0.9848078;1.673648;-0.7271553;1.708016;
637953099159709209;732.6097;36;2;1.5;1.1;2;1400;1.07142857142857;-0.6427882;2.266044;-0.4262018;2.08988;0.8660256;1;0.7536566;1.348461;
637953099178811754;734.5195;36;2;1.5;1.1;2;1910;0.785340314136126;0.3420205;0.5603075;0.2944834;0.8915676;-0.6427882;2.266044;-0.4262018;2.08988;
637953099214811507;738.119;36;2;2;0.6;1.8;2000;1;-0.3078177;0.6542765;-0.2415152;0.919065;0;2.4;0.008168275;2.375685;
637953099227784424;739.4175;36;2;2;0.6;1.8;1299;1.53964588144727;0.5785087;2.18944;0.4819044;2.038938;-0.3078177;0.6542765;-0.2415152;0.919065;
637953099241767570;740.8168;36;2;2;0.6;1.8;1399;1.42959256611866;-0.7794226;1.05;-0.6992499;1.172111;0.5785087;2.18944;0.4819044;2.038938;
637953099252760042;741.916;36;2;2;0.6;1.8;1099;1.81983621474067;0.8863269;1.656283;0.8182956;1.649874;-0.7794226;1.05;-0.6992499;1.172111;
637953099271754315;743.8152;36;2;2;0.6;1.8;1899;1.05318588730911;-0.8863271;1.656283;-0.8510222;1.672611;0.8863269;1.656283;0.8182956;1.649874;
637953099284857259;745.1257;36;2;2;0.6;1.8;1310;1.52671755725191;0.779423;1.05;0.7277475;1.182531;-0.8863271;1.656283;-0.8510222;1.672611;
637953099297850180;746.425;36;2;2;0.6;1.8;1299;1.53964588144727;-0.5785094;2.18944;-0.4725347;2.125605;0.779423;1.05;0.7277475;1.182531;
637953099315844224;748.2244;36;2;2;0.6;1.8;1799;1.11172873818788;0.3078185;0.6542768;0.2945996;0.7056967;-0.5785094;2.18944;-0.4725347;2.125605;
637953100032183115;819.8584;36;3;4.5;0.1;2.2;6197;0.726157818299177;-0.3762217;0.4663379;-0.3701501;0.5039939;0;2.6;0.02053762;2.597773;
637953100122253370;828.8652;36;3;4.5;0.1;2.2;9007;0.499611413345176;0.7070663;2.342649;0.7117398;2.353967;-0.3762217;0.4663379;-0.3701501;0.5039939;
637953100159231683;832.5634;36;3;4.5;0.1;2.2;3698;1.21687398593835;-0.9526277;0.9499994;-0.976721;0.9731318;0.7070663;2.342649;0.7117398;2.353967;
637953100181216623;834.7624;36;3;4.5;0.1;2.2;2199;2.04638472032742;1.083289;1.691013;1.096395;1.67626;-0.9526277;0.9499994;-0.976721;0.9731318;
637953100206316245;837.2725;36;3;4.5;0.1;2.2;2510;1.79282868525896;-1.083289;1.691012;-1.076246;1.709149;1.083289;1.691013;1.096395;1.67626;
637953100236359841;840.276;36;3;4.5;0.1;2.2;3004;1.49800266311585;0.9526281;0.9500003;0.9308679;0.966069;-1.083289;1.691012;-1.076246;1.709149;
637953100259295024;842.5699;36;3;4.5;0.1;2.2;2294;1.96163905841325;-0.7070671;2.342648;-0.6789683;2.309799;0.9526281;0.9500003;0.9308679;0.966069;
637953100283289319;844.9688;36;3;4.5;0.1;2.2;2399;1.87578157565652;0.3762226;0.4663382;0.3862525;0.51001;-0.7070671;2.342648;-0.6789683;2.309799;
637953100316270381;848.2673;36;3;2;0.6;1.8;1799;1.11172873818788;-0.3078177;0.6542765;-0.2077415;0.8480052;0;2.4;-0.01543708;2.331733;
637953100329273301;849.5673;36;3;2;0.6;1.8;1300;1.53846153846154;0.5785087;2.18944;0.5409448;2.272123;-0.3078177;0.6542765;-0.2077415;0.8480052;
637953100345306908;851.1708;36;3;2;0.6;1.8;1604;1.24688279301746;-0.7794226;1.05;-0.6710253;1.1142;0.5785087;2.18944;0.5409448;2.272123;
637953100373353214;853.976;36;3;2;0.6;1.8;2805;0.71301247771836;0.8863269;1.656283;0.709251;1.825318;-0.7794226;1.05;-0.6710253;1.1142;
637953100388346582;855.4754;36;3;2;0.6;1.8;1499;1.33422281521014;-0.8863271;1.656283;-0.7784643;1.758634;0.8863269;1.656283;0.709251;1.825318;
637953100403339958;856.9742;36;3;2;0.6;1.8;1499;1.33422281521014;0.779423;1.05;0.7024516;1.174517;-0.8863271;1.656283;-0.7784643;1.758634;
637953100418383337;858.4788;36;3;2;0.6;1.8;1505;1.32890365448505;-0.5785094;2.18944;-0.5944998;2.074099;0.779423;1.05;0.7024516;1.174517;
637953100444329167;861.0727;36;3;2;0.6;1.8;2594;0.771010023130301;0.3078185;0.6542768;0.2927155;0.8811435;-0.5785094;2.18944;-0.5944998;2.074099;
637953100476306360;864.2711;36;3;3;0.2;1.4;1499;2.00133422281521;-0.2394138;0.8422151;-0.2386859;0.8429188;0;2.2;-0.01610452;2.229342;
637953100500411782;866.6812;36;3;3;0.2;1.4;2410;1.2448132780083;0.4499513;2.036231;0.4041604;2.018415;-0.2394138;0.8422151;-0.2386859;0.8429188;
637953100523396950;868.9804;36;3;3;0.2;1.4;2299;1.30491518051327;-0.6062176;1.15;-0.5748418;1.167696;0.4499513;2.036231;0.4041604;2.018415;
637953100537390096;870.3795;36;3;3;0.2;1.4;1399;2.14438884917798;0.6893654;1.621554;0.6829026;1.633463;-0.6062176;1.15;-0.5748418;1.167696;
637953100548392569;871.4792;36;3;3;0.2;1.4;1100;2.72727272727273;-0.6893655;1.621553;-0.6511753;1.634523;0.6893654;1.621554;0.6829026;1.633463;
637953100560385264;872.6785;36;3;3;0.2;1.4;1199;2.50208507089241;0.6062179;1.15;0.5458861;1.196239;-0.6893655;1.621553;-0.6511753;1.634523;
637953100575375916;874.1777;36;3;3;0.2;1.4;1499;2.00133422281521;-0.4499517;2.036231;-0.4631453;2.043285;0.6062179;1.15;0.5458861;1.196239;
637953100613362213;877.9761;36;3;3;0.2;1.4;3798;0.789889415481833;0.2394144;0.8422153;0.2108927;0.8029625;-0.4499517;2.036231;-0.4631453;2.043285;
637953100649447340;881.5852;36;3;4;0.1;1.4;1610;2.48447204968944;-0.2394138;0.8422151;-0.2415791;0.8798029;0;2.2;-0.04372379;2.207657;
637953100684435208;885.0843;36;3;4;0.1;1.4;3499;1.14318376679051;0.4499513;2.036231;0.4581946;2.054386;-0.2394138;0.8422151;-0.2415791;0.8798029;
637953100702429253;886.8831;36;3;4;0.1;1.4;1799;2.22345747637576;-0.6062176;1.15;-0.6120211;1.187033;0.4499513;2.036231;0.4581946;2.054386;
637953100730415543;889.6818;36;3;4;0.1;1.4;2799;1.4290818149339;0.6893654;1.621554;0.6661369;1.626357;-0.6062176;1.15;-0.6120211;1.187033;
637953100751410266;891.7809;36;3;4;0.1;1.4;2099;1.90566936636494;-0.6893655;1.621553;-0.7039165;1.610859;0.6893654;1.621554;0.6661369;1.626357;
637953100771394760;893.78;36;3;4;0.1;1.4;1999;2.00100050025012;0.6062179;1.15;0.5711315;1.130143;-0.6893655;1.621553;-0.7039165;1.610859;
637953100802381727;896.8785;36;3;4;0.1;1.4;3098;1.2911555842479;-0.4499517;2.036231;-0.4310643;2.039596;0.6062179;1.15;0.5711315;1.130143;
637953100824476693;899.0884;36;3;4;0.1;1.4;2210;1.80995475113122;0.2394144;0.8422153;0.2394457;0.8758941;-0.4499517;2.036231;-0.4310643;2.039596;
637953100842480745;900.8876;36;3;2.5;0.3;1.4;899;2.78086763070078;-0.2394138;0.8422151;-0.2134489;0.912855;0;2.2;0.03900395;2.068086;
637953100851522777;901.7927;36;3;2.5;0.3;1.4;905;2.76243093922652;0.4499513;2.036231;0.3876014;1.976538;-0.2394138;0.8422151;-0.2134489;0.912855;
637953100862465235;902.8868;36;3;2.5;0.3;1.4;1094;2.28519195612431;-0.6062176;1.15;-0.5114496;1.171864;0.4499513;2.036231;0.3876014;1.976538;
637953100871467261;903.7866;36;3;2.5;0.3;1.4;900;2.77777777777778;0.6893654;1.621554;0.5585328;1.584744;-0.6062176;1.15;-0.5114496;1.171864;
637953100880459278;904.6862;36;3;2.5;0.3;1.4;900;2.77777777777778;-0.6893655;1.621553;-0.7131458;1.581601;0.6893654;1.621554;0.5585328;1.584744;
637953100900443776;906.685;36;3;2.5;0.3;1.4;1999;1.25062531265633;0.6062179;1.15;0.5567109;1.209474;-0.6893655;1.621553;-0.7131458;1.581601;
637953100911451222;907.7849;36;3;2.5;0.3;1.4;1100;2.27272727272727;-0.4499517;2.036231;-0.3635314;1.952159;0.6062179;1.15;0.5567109;1.209474;
637953100920442766;908.6844;36;3;2.5;0.3;1.4;899;2.78086763070078;0.2394144;0.8422153;0.2525363;0.7990156;-0.4499517;2.036231;-0.3635314;1.952159;
637953100956536562;912.2936;36;3;3.5;0.2;2;1300;2.69230769230769;-0.3420197;0.5603072;-0.2980743;0.62178;0;2.5;-0.03906475;2.415739;
637953100967526516;913.3933;36;3;3.5;0.2;2;1100;3.18181818181818;0.6427875;2.266045;0.5863612;2.267538;-0.3420197;0.5603072;-0.2980743;0.62178;
637953100983521186;914.9925;36;3;3.5;0.2;2;1599;2.18886804252658;-0.8660251;0.9999995;-0.8326018;1.070091;0.6427875;2.266045;0.5863612;2.267538;
637953101039653808;920.606;36;3;3.5;0.2;2;5614;0.623441396508728;0.9848077;1.673648;0.9279007;1.620651;-0.8660251;0.9999995;-0.8326018;1.070091;
637953101051596491;921.8005;36;3;3.5;0.2;2;1194;2.93132328308208;-0.9848078;1.673648;-0.9264507;1.665598;0.9848077;1.673648;0.9279007;1.620651;
637953101074591661;924.0994;36;3;3.5;0.2;2;2299;1.52240104393214;0.8660256;1;0.7920077;1.013336;-0.9848078;1.673648;-0.9264507;1.665598;
637953101115570874;928.1976;36;3;3.5;0.2;2;4098;0.854075158613958;-0.6427882;2.266044;-0.6655258;2.266736;0.8660256;1;0.7920077;1.013336;
637953101134565145;930.0967;36;3;3.5;0.2;2;1899;1.84307530279094;0.3420205;0.5603075;0.3821156;0.6181718;-0.6427882;2.266044;-0.6655258;2.266736;
637953101157560313;932.3961;36;3;1.5;1.1;2;1200;1.25;-0.3420197;0.5603072;-0.2329616;1.008051;0;2.5;0.09549805;2.298558;
637953101189697538;935.6104;36;3;1.5;1.1;2;3214;0.466708151835719;0.6427875;2.266045;0.5751589;2.361413;-0.3420197;0.5603072;-0.2329616;1.008051;
637953101200640000;936.7047;36;3;1.5;1.1;2;1094;1.37111517367459;-0.8660251;0.9999995;-0.5985655;1.344065;0.6427875;2.266045;0.5751589;2.361413;
637953101209642026;937.6043;36;3;1.5;1.1;2;900;1.66666666666667;0.9848077;1.673648;0.5120986;1.658474;-0.8660251;0.9999995;-0.5985655;1.344065;
637953101217633825;938.4041;36;3;1.5;1.1;2;800;1.875;-0.9848078;1.673648;-0.584157;1.682675;0.9848077;1.673648;0.5120986;1.658474;
637953101228636295;939.5038;36;3;1.5;1.1;2;1100;1.36363636363636;0.8660256;1;0.4958311;1.117915;-0.9848078;1.673648;-0.584157;1.682675;
637953101235607861;940.2004;36;3;1.5;1.1;2;697;2.15208034433285;-0.6427882;2.266044;-0.347462;2.002707;0.8660256;1;0.4958311;1.117915;
637953101243629665;941.0032;36;3;1.5;1.1;2;803;1.86799501867995;0.3420205;0.5603075;0.03287259;0.8892599;-0.6427882;2.266044;-0.347462;2.002707;
637953102382442528;1054.884;36;4;3;0.2;1.4;1694;1.77095631641086;-0.2394138;0.8422151;-0.1895424;0.9187028;0;2.2;0.02924518;2.167336;
637953102398436124;1056.484;36;4;3;0.2;1.4;1600;1.875;0.4499513;2.036231;0.4181875;1.979215;-0.2394138;0.8422151;-0.1895424;0.9187028;
637953102410418817;1057.683;36;4;3;0.2;1.4;1199;2.50208507089241;-0.6062176;1.15;-0.5864527;1.17391;0.4499513;2.036231;0.4181875;1.979215;
637953102418420614;1058.482;36;4;3;0.2;1.4;800;3.75;0.6893654;1.621554;0.6383314;1.591869;-0.6062176;1.15;-0.5864527;1.17391;
637953102427462647;1059.387;36;4;3;0.2;1.4;904;3.31858407079646;-0.6893655;1.621553;-0.7158828;1.583327;0.6893654;1.621554;0.6383314;1.591869;
637953102439405332;1060.581;36;4;3;0.2;1.4;1194;2.51256281407035;0.6062179;1.15;0.5887312;1.199587;-0.6893655;1.621553;-0.7158828;1.583327;
637953102450407806;1061.681;36;4;3;0.2;1.4;1100;2.72727272727273;-0.4499517;2.036231;-0.4456328;1.982969;0.6062179;1.15;0.5887312;1.199587;
637953102460400056;1062.68;36;4;3;0.2;1.4;1000;3;0.2394144;0.8422153;0.1792011;0.9140742;-0.4499517;2.036231;-0.4456328;1.982969;
637953102520373540;1068.678;36;4;4;0.1;1.4;1499;2.66844563042028;-0.2394138;0.8422151;-0.2307068;0.8428193;0;2.2;0.007327307;2.184021;
637953102535476932;1070.188;36;4;4;0.1;1.4;1510;2.64900662251656;0.4499513;2.036231;0.423227;2.011241;-0.2394138;0.8422151;-0.2307068;0.8428193;
637953102549810154;1071.629;36;4;4;0.1;1.4;1441;2.77585010409438;-0.6062176;1.15;-0.6308373;1.193508;0.4499513;2.036231;0.423227;2.011241;
637953102570464798;1073.687;36;4;4;0.1;1.4;2058;1.94363459669582;0.6893654;1.621554;0.682355;1.638728;-0.6062176;1.15;-0.6308373;1.193508;
637953102588448842;1075.486;36;4;4;0.1;1.4;1799;2.22345747637576;-0.6893655;1.621553;-0.6720017;1.596888;0.6893654;1.621554;0.682355;1.638728;
637953102601447669;1076.785;36;4;4;0.1;1.4;1300;3.07692307692308;0.6062179;1.15;0.607222;1.19754;-0.6893655;1.621553;-0.6720017;1.596888;
637953102615446200;1078.185;36;4;4;0.1;1.4;1399;2.85918513223731;-0.4499517;2.036231;-0.4586162;2.013984;0.6062179;1.15;0.607222;1.19754;
637953102637431148;1080.383;36;4;4;0.1;1.4;2199;1.81900864029104;0.2394144;0.8422153;0.2192424;0.8456539;-0.4499517;2.036231;-0.4586162;2.013984;
637953102657474198;1082.388;36;4;3.5;0.2;2;1104;3.17028985507246;-0.3420197;0.5603072;-0.3343524;0.56618;0;2.5;0.03733064;2.430377;
637953102669528171;1083.593;36;4;3.5;0.2;2;1206;2.90215588723051;0.6427875;2.266045;0.6509706;2.1722;-0.3420197;0.5603072;-0.3343524;0.56618;
637953102679529323;1084.593;36;4;3.5;0.2;2;1000;3.5;-0.8660251;0.9999995;-0.8199663;0.9696103;0.6427875;2.266045;0.6509706;2.1722;
637953102689514868;1085.592;36;4;3.5;0.2;2;999;3.5035035035035;0.9848077;1.673648;0.976788;1.670987;-0.8660251;0.9999995;-0.8199663;0.9696103;
637953102699517118;1086.592;36;4;3.5;0.2;2;1000;3.5;-0.9848078;1.673648;-0.9759859;1.695904;0.9848077;1.673648;0.976788;1.670987;
637953102708509137;1087.491;36;4;3.5;0.2;2;900;3.88888888888889;0.8660256;1;0.8092304;1.003653;-0.9848078;1.673648;-0.9759859;1.695904;
637953102716620967;1088.302;36;4;3.5;0.2;2;811;4.31565967940814;-0.6427882;2.266044;-0.6309528;2.26793;0.8660256;1;0.8092304;1.003653;
637953102731604333;1089.801;36;4;3.5;0.2;2;1499;2.33488992661775;0.3420205;0.5603075;0.3169514;0.6438578;-0.6427882;2.266044;-0.6309528;2.26793;
637953102747607933;1091.401;36;4;2;0.6;1.8;800;2.5;-0.3078177;0.6542765;-0.1940758;0.8659316;0;2.4;0.01747187;2.247947;
637953102755599730;1092.2;36;4;2;0.6;1.8;800;2.5;0.5785087;2.18944;0.4593199;2.072831;-0.3078177;0.6542765;-0.1940758;0.8659316;
637953102762591302;1092.9;36;4;2;0.6;1.8;699;2.86123032904149;-0.7794226;1.05;-0.7216225;1.136073;0.5785087;2.18944;0.4593199;2.072831;
637953102769592874;1093.6;36;4;2;0.6;1.8;700;2.85714285714286;0.8863269;1.656283;0.9434894;1.770562;-0.7794226;1.05;-0.7216225;1.136073;
637953102775594226;1094.199;36;4;2;0.6;1.8;600;3.33333333333333;-0.8863271;1.656283;-0.7464684;1.629429;0.8863269;1.656283;0.9434894;1.770562;
637953102783586021;1094.999;36;4;2;0.6;1.8;800;2.5;0.779423;1.05;0.7354962;1.154564;-0.8863271;1.656283;-0.7464684;1.629429;
637953102790587596;1095.699;36;4;2;0.6;1.8;700;2.85714285714286;-0.5785094;2.18944;-0.4882321;2.070472;0.779423;1.05;0.7354962;1.154564;
637953102796578944;1096.298;36;4;2;0.6;1.8;599;3.33889816360601;0.3078185;0.6542768;0.2253244;0.840781;-0.5785094;2.18944;-0.4882321;2.070472;
637953102813572766;1097.998;36;4;2.5;0.3;1.4;899;2.78086763070078;-0.2394138;0.8422151;-0.1949823;0.9830818;0;2.2;-0.01223662;2.103487;
637953102821564558;1098.797;36;4;2.5;0.3;1.4;799;3.12891113892365;0.4499513;2.036231;0.4327913;1.956861;-0.2394138;0.8422151;-0.1949823;0.9830818;
637953102841559057;1100.796;36;4;2.5;0.3;1.4;1999;1.25062531265633;-0.6062176;1.15;-0.4824616;1.196521;0.4499513;2.036231;0.4327913;1.956861;
637953102851561300;1101.796;36;4;2.5;0.3;1.4;1000;2.5;0.6893654;1.621554;0.6039037;1.571196;-0.6062176;1.15;-0.4824616;1.196521;
637953102858552877;1102.496;36;4;2.5;0.3;1.4;699;3.57653791130186;-0.6893655;1.621553;-0.6967692;1.599992;0.6893654;1.621554;0.6039037;1.571196;
637953102866654696;1103.306;36;4;2.5;0.3;1.4;810;3.08641975308642;0.6062179;1.15;0.4879739;1.216315;-0.6893655;1.621553;-0.6967692;1.599992;
637953102874656497;1104.106;36;4;2.5;0.3;1.4;800;3.125;-0.4499517;2.036231;-0.4475009;1.993123;0.6062179;1.15;0.4879739;1.216315;
637953102883598507;1105;36;4;2.5;0.3;1.4;894;2.79642058165548;0.2394144;0.8422153;0.2448855;0.8245869;-0.4499517;2.036231;-0.4475009;1.993123;
637953102895651217;1106.205;36;4;1.5;1.1;2;599;2.50417362270451;-0.3420197;0.5603072;-0.2687949;1.050534;0;2.5;-0.03007784;2.25426;
637953102911634815;1107.804;36;4;1.5;1.1;2;1599;0.938086303939963;0.6427875;2.266045;0.4878673;2.217169;-0.3420197;0.5603072;-0.2687949;1.050534;
637953102920636839;1108.704;36;4;1.5;1.1;2;900;1.66666666666667;-0.8660251;0.9999995;-0.6019193;1.310518;0.6427875;2.266045;0.4878673;2.217169;
637953102927638408;1109.404;36;4;1.5;1.1;2;700;2.14285714285714;0.9848077;1.673648;0.6603944;1.769928;-0.8660251;0.9999995;-0.6019193;1.310518;
637953102934740008;1110.114;36;4;1.5;1.1;2;711;2.10970464135021;-0.9848078;1.673648;-0.714987;1.827968;0.9848077;1.673648;0.6603944;1.769928;
637953102940671338;1110.708;36;4;1.5;1.1;2;594;2.52525252525253;0.8660256;1;0.5448295;1.212656;-0.9848078;1.673648;-0.714987;1.827968;
637953102946732703;1111.314;36;4;1.5;1.1;2;606;2.47524752475248;-0.6427882;2.266044;-0.302845;2.068298;0.8660256;1;0.5448295;1.212656;
637953102962726300;1112.913;36;4;1.5;1.1;2;1599;0.938086303939963;0.3420205;0.5603075;0.2432565;0.8152642;-0.6427882;2.266044;-0.302845;2.068298;
637953102987715997;1115.412;36;4;4.5;0.1;2.2;1195;3.76569037656904;-0.3762217;0.4663379;-0.3754728;0.4912689;0;2.6;0.03313964;2.570513;
637953102999758702;1116.616;36;4;4.5;0.1;2.2;1204;3.7375415282392;0.7070663;2.342649;0.7200655;2.298894;-0.3762217;0.4663379;-0.3754728;0.4912689;
637953103011703392;1117.811;36;4;4.5;0.1;2.2;1194;3.76884422110553;-0.9526277;0.9499994;-0.9436647;0.9691125;0.7070663;2.342649;0.7200655;2.298894;
637953103020701652;1118.71;36;4;4.5;0.1;2.2;900;5;1.083289;1.691013;1.066789;1.689363;-0.9526277;0.9499994;-0.9436647;0.9691125;
637953103034852248;1120.126;36;4;4.5;0.1;2.2;1415;3.18021201413428;-1.083289;1.691012;-1.048833;1.721933;1.083289;1.691013;1.066789;1.689363;
637953103053796507;1122.02;36;4;4.5;0.1;2.2;1895;2.37467018469657;0.9526281;0.9500003;0.9420216;0.9839024;-1.083289;1.691012;-1.048833;1.721933;
637953103066839439;1123.324;36;4;4.5;0.1;2.2;1304;3.45092024539877;-0.7070671;2.342648;-0.704803;2.304155;0.9526281;0.9500003;0.9420216;0.9839024;
637953103075791451;1124.219;36;4;4.5;0.1;2.2;895;5.02793296089386;0.3762226;0.4663382;0.3428688;0.4600229;-0.7070671;2.342648;-0.704803;2.304155;
637953103640087484;1180.649;36;5;4;0.1;1.4;1299;3.07929176289453;-0.2394138;0.8422151;-0.2383491;0.8921083;0;2.2;-0.02618145;2.169415;
637953103651079952;1181.748;36;5;4;0.1;1.4;1100;3.63636363636364;0.4499513;2.036231;0.4263707;1.99358;-0.2394138;0.8422151;-0.2383491;0.8921083;
637953103664072875;1183.048;36;5;4;0.1;1.4;1299;3.07929176289453;-0.6062176;1.15;-0.5782477;1.167018;0.4499513;2.036231;0.4263707;1.99358;
637953103677075800;1184.347;36;5;4;0.1;1.4;1300;3.07692307692308;0.6893654;1.621554;0.6531444;1.627043;-0.6062176;1.15;-0.5782477;1.167018;
637953103693059393;1185.946;36;5;4;0.1;1.4;1599;2.50156347717323;-0.6893655;1.621553;-0.657274;1.636262;0.6893654;1.621554;0.6531444;1.627043;
637953103707052543;1187.346;36;5;4;0.1;1.4;1399;2.85918513223731;0.6062179;1.15;0.5984982;1.152794;-0.6893655;1.621553;-0.657274;1.636262;
637953103715054338;1188.145;36;5;4;0.1;1.4;800;5;-0.4499517;2.036231;-0.4081368;2.059464;0.6062179;1.15;0.5984982;1.152794;
637953103729189557;1189.56;36;5;4;0.1;1.4;1414;2.82885431400283;0.2394144;0.8422153;0.2051989;0.8515924;-0.4499517;2.036231;-0.4081368;2.059464;
637953103740192035;1190.66;36;5;1.5;1.1;2;499;3.0060120240481;-0.3420197;0.5603072;-0.0738074;0.9773647;0;2.5;0.06518501;2.134948;
637953103746153373;1191.255;36;5;1.5;1.1;2;596;2.51677852348993;0.6427875;2.266045;0.4682678;2.095525;-0.3420197;0.5603072;-0.0738074;0.9773647;
637953103752144722;1191.855;36;5;1.5;1.1;2;599;2.50417362270451;-0.8660251;0.9999995;-0.6851633;1.307751;0.6427875;2.266045;0.4682678;2.095525;
637953103758146071;1192.455;36;5;1.5;1.1;2;600;2.5;0.9848077;1.673648;0.6323599;1.622922;-0.8660251;0.9999995;-0.6851633;1.307751;
637953103764137418;1193.054;36;5;1.5;1.1;2;599;2.50417362270451;-0.9848078;1.673648;-0.6289636;1.729955;0.9848077;1.673648;0.6323599;1.622922;
637953103787130120;1195.353;36;5;1.5;1.1;2;2299;0.652457590256633;0.8660256;1;0.5725039;1.219043;-0.9848078;1.673648;-0.6289636;1.729955;
637953103799172833;1196.557;36;5;1.5;1.1;2;1204;1.24584717607973;-0.6427882;2.266044;-0.3791251;1.995147;0.8660256;1;0.5725039;1.219043;
637953103809355125;1197.583;36;5;1.5;1.1;2;1026;1.46198830409357;0.3420205;0.5603075;0.1951654;1.089915;-0.6427882;2.266044;-0.3791251;1.995147;
637953103846103381;1201.25;36;5;3.5;0.2;2;2099;1.66746069556932;-0.3420197;0.5603072;-0.313732;0.570024;0;2.5;-0.01762037;2.4443;
637953103860096533;1202.65;36;5;3.5;0.2;2;1399;2.50178699070765;0.6427875;2.266045;0.6088967;2.278567;-0.3420197;0.5603072;-0.313732;0.570024;
637953103871139020;1203.754;36;5;3.5;0.2;2;1105;3.16742081447964;-0.8660251;0.9999995;-0.8459398;0.9758243;0.6427875;2.266045;0.6088967;2.278567;
637953103884081926;1205.049;36;5;3.5;0.2;2;1294;2.7047913446677;0.9848077;1.673648;0.9439281;1.594867;-0.8660251;0.9999995;-0.8459398;0.9758243;
637953103893193974;1205.959;36;5;3.5;0.2;2;911;3.84193194291987;-0.9848078;1.673648;-0.9735102;1.644255;0.9848077;1.673648;0.9439281;1.594867;
637953103903186220;1206.959;36;5;3.5;0.2;2;999;3.5035035035035;0.8660256;1;0.8096393;1.047494;-0.9848078;1.673648;-0.9735102;1.644255;
637953103934173188;1210.058;36;5;3.5;0.2;2;3099;1.12939657954179;-0.6427882;2.266044;-0.6573351;2.257354;0.8660256;1;0.8096393;1.047494;
637953103950166779;1211.657;36;5;3.5;0.2;2;1599;2.18886804252658;0.3420205;0.5603075;0.2874219;0.5780616;-0.6427882;2.266044;-0.6573351;2.257354;
637953103973161954;1213.956;36;5;2;0.6;1.8;1300;1.53846153846154;-0.3078177;0.6542765;-0.1956149;0.908118;0;2.4;-0.01459984;2.164821;
637953103984144421;1215.055;36;5;2;0.6;1.8;1099;1.81983621474067;0.5785087;2.18944;0.5198373;2.088154;-0.3078177;0.6542765;-0.1956149;0.908118;
637953103991146001;1215.755;36;5;2;0.6;1.8;700;2.85714285714286;-0.7794226;1.05;-0.7032853;1.206509;0.5785087;2.18944;0.5198373;2.088154;
637953103998147570;1216.455;36;5;2;0.6;1.8;700;2.85714285714286;0.8863269;1.656283;0.8259701;1.69924;-0.7794226;1.05;-0.7032853;1.206509;
637953104005189151;1217.159;36;5;2;0.6;1.8;704;2.84090909090909;-0.8863271;1.656283;-0.838452;1.672225;0.8863269;1.656283;0.8259701;1.69924;
637953104011180500;1217.759;36;5;2;0.6;1.8;600;3.33333333333333;0.779423;1.05;0.9062247;1.129526;-0.8863271;1.656283;-0.838452;1.672225;
637953104017131838;1218.353;36;5;2;0.6;1.8;595;3.36134453781513;-0.5785094;2.18944;-0.5127406;1.948781;0.779423;1.05;0.9062247;1.129526;
637953104024133412;1219.054;36;5;2;0.6;1.8;700;2.85714285714286;0.3078185;0.6542768;0.2265202;0.8267471;-0.5785094;2.18944;-0.5127406;1.948781;
637953104043167691;1220.957;36;5;3;0.2;1.4;1204;2.49169435215947;-0.2394138;0.8422151;-0.2026896;0.9077715;0;2.2;-0.02965811;2.276495;
637953104052229733;1221.863;36;5;3;0.2;1.4;906;3.3112582781457;0.4499513;2.036231;0.3899577;1.990353;-0.2394138;0.8422151;-0.2026896;0.9077715;
637953104062281984;1222.868;36;5;3;0.2;1.4;1005;2.98507462686567;-0.6062176;1.15;-0.5210643;1.124011;0.4499513;2.036231;0.3899577;1.990353;
637953104070268073;1223.667;36;5;3;0.2;1.4;799;3.75469336670839;0.6893654;1.621554;0.7391576;1.66516;-0.6062176;1.15;-0.5210643;1.124011;
637953104078223027;1224.462;36;5;3;0.2;1.4;795;3.77358490566038;-0.6893655;1.621553;-0.6384122;1.624577;0.6893654;1.621554;0.7391576;1.66516;
637953104086260312;1225.267;36;5;3;0.2;1.4;805;3.72670807453416;0.6062179;1.15;0.6196305;1.100245;-0.6893655;1.621553;-0.6384122;1.624577;
637953104092151639;1225.855;36;5;3;0.2;1.4;589;5.09337860780985;-0.4499517;2.036231;-0.3820849;2.07162;0.6062179;1.15;0.6196305;1.100245;
637953104098263017;1226.466;36;5;3;0.2;1.4;611;4.90998363338789;0.2394144;0.8422153;0.1681195;0.8478986;-0.4499517;2.036231;-0.3820849;2.07162;
637953104125191993;1229.159;36;5;4.5;0.1;2.2;1399;3.21658327376698;-0.3762217;0.4663379;-0.3663379;0.5139062;0;2.6;-0.0004277676;2.556547;
637953104150182026;1231.659;36;5;4.5;0.1;2.2;2499;1.80072028811525;0.7070663;2.342649;0.7097314;2.312352;-0.3762217;0.4663379;-0.3663379;0.5139062;
637953104167172165;1233.358;36;5;4.5;0.1;2.2;1699;2.64861683343143;-0.9526277;0.9499994;-0.9194447;0.9185675;0.7070663;2.342649;0.7097314;2.312352;
637953104191270074;1235.768;36;5;4.5;0.1;2.2;2410;1.86721991701245;1.083289;1.691013;1.077728;1.717231;-0.9526277;0.9499994;-0.9194447;0.9185675;
637953104206273444;1237.268;36;5;4.5;0.1;2.2;1500;3;-1.083289;1.691012;-1.075676;1.658739;1.083289;1.691013;1.077728;1.717231;
637953104219266367;1238.567;36;5;4.5;0.1;2.2;1299;3.46420323325635;0.9526281;0.9500003;0.9539123;0.9361908;-1.083289;1.691012;-1.075676;1.658739;
637953104239250857;1240.566;36;5;4.5;0.1;2.2;1999;2.25112556278139;-0.7070671;2.342648;-0.7164689;2.302712;0.9526281;0.9500003;0.9539123;0.9361908;
637953104253244005;1241.965;36;5;4.5;0.1;2.2;1399;3.21658327376698;0.3762226;0.4663382;0.3695064;0.5084698;-0.7070671;2.342648;-0.7164689;2.302712;
637953104274238727;1244.064;36;5;2.5;0.3;1.4;1399;1.78699070764832;-0.2394138;0.8422151;-0.1960084;0.9659556;0;2.2;-0.04231351;2.117757;
637953104283230745;1244.964;36;5;2.5;0.3;1.4;900;2.77777777777778;0.4499513;2.036231;0.3697121;2.016423;-0.2394138;0.8422151;-0.1960084;0.9659556;
637953104290232325;1245.663;36;5;2.5;0.3;1.4;700;3.57142857142857;-0.6062176;1.15;-0.529255;1.269282;0.4499513;2.036231;0.3697121;2.016423;
637953104311217042;1247.762;36;5;2.5;0.3;1.4;2099;1.19104335397808;0.6893654;1.621554;0.6557981;1.647902;-0.6062176;1.15;-0.529255;1.269282;
637953104320329089;1248.673;36;5;2.5;0.3;1.4;911;2.74423710208562;-0.6893655;1.621553;-0.7246205;1.613412;0.6893654;1.621554;0.6557981;1.647902;
637953104327330665;1249.373;36;5;2.5;0.3;1.4;700;3.57142857142857;0.6062179;1.15;0.4874316;1.143623;-0.6893655;1.621553;-0.7246205;1.613412;
637953104335322459;1250.172;36;5;2.5;0.3;1.4;799;3.12891113892365;-0.4499517;2.036231;-0.4086066;1.983338;0.6062179;1.15;0.4874316;1.143623;
637953104343324256;1250.973;36;5;2.5;0.3;1.4;800;3.125;0.2394144;0.8422153;0.2145922;0.9209591;-0.4499517;2.036231;-0.4086066;1.983338;
637953104870651949;1303.704;36;6;2;0.6;1.8;600;3.33333333333333;-0.3078177;0.6542765;-0.2063357;0.7295579;0;2.4;-0.02143101;2.446326;
637953104876583282;1304.297;36;6;2;0.6;1.8;593;3.37268128161889;0.5785087;2.18944;0.4976624;2.109403;-0.3078177;0.6542765;-0.2063357;0.7295579;
637953104882644700;1304.903;36;6;2;0.6;1.8;606;3.3003300330033;-0.7794226;1.05;-0.790435;1.03128;0.5785087;2.18944;0.4976624;2.109403;
637953104887638319;1305.403;36;6;2;0.6;1.8;500;4;0.8863269;1.656283;0.8365002;1.733091;-0.7794226;1.05;-0.790435;1.03128;
637953104894636191;1306.103;36;6;2;0.6;1.8;699;2.86123032904149;-0.8863271;1.656283;-0.7143576;1.663828;0.8863269;1.656283;0.8365002;1.733091;
637953104899634949;1306.602;36;6;2;0.6;1.8;500;4;0.779423;1.05;0.8530284;1.059089;-0.8863271;1.656283;-0.7143576;1.663828;
637953104905624349;1307.202;36;6;2;0.6;1.8;600;3.33333333333333;-0.5785094;2.18944;-0.5830715;2.096433;0.779423;1.05;0.8530284;1.059089;
637953104911636393;1307.802;36;6;2;0.6;1.8;600;3.33333333333333;0.3078185;0.6542768;0.2738004;0.7705467;-0.5785094;2.18944;-0.5830715;2.096433;
637953104939610909;1310.6;36;6;4;0.1;1.4;1798;2.22469410456062;-0.2394138;0.8422151;-0.2139513;0.8366771;0;2.2;0.03259483;2.202533;
637953104956605601;1312.3;36;6;4;0.1;1.4;1700;2.35294117647059;0.4499513;2.036231;0.4737169;2.032032;-0.2394138;0.8422151;-0.2139513;0.8366771;
637953104967598073;1313.399;36;6;4;0.1;1.4;1099;3.63967242948135;-0.6062176;1.15;-0.5663331;1.16974;0.4499513;2.036231;0.4737169;2.032032;
637953104976590096;1314.298;36;6;4;0.1;1.4;900;4.44444444444444;0.6893654;1.621554;0.6557184;1.588779;-0.6062176;1.15;-0.5663331;1.16974;
637953104989593017;1315.598;36;6;4;0.1;1.4;1299;3.07929176289453;-0.6893655;1.621553;-0.6612074;1.643182;0.6893654;1.621554;0.6557184;1.588779;
637953105003586163;1316.998;36;6;4;0.1;1.4;1400;2.85714285714286;0.6062179;1.15;0.5674639;1.168261;-0.6893655;1.621553;-0.6612074;1.643182;
637953105015578860;1318.197;36;6;4;0.1;1.4;1200;3.33333333333333;-0.4499517;2.036231;-0.4737675;2.007001;0.6062179;1.15;0.5674639;1.168261;
637953105039684280;1320.607;36;6;4;0.1;1.4;2410;1.6597510373444;0.2394144;0.8422153;0.2445875;0.8125665;-0.4499517;2.036231;-0.4737675;2.007001;
637953105061679219;1322.806;36;6;1.5;1.1;2;1600;0.9375;-0.3420197;0.5603072;-0.1068575;0.94015;0;2.5;0.1073833;2.100341;
637953105067650567;1323.405;36;6;1.5;1.1;2;599;2.50417362270451;0.6427875;2.266045;0.4921614;2.07493;-0.3420197;0.5603072;-0.1068575;0.94015;
637953105081643714;1324.805;36;6;1.5;1.1;2;1400;1.07142857142857;-0.8660251;0.9999995;-0.6567295;1.279735;0.6427875;2.266045;0.4921614;2.07493;
637953105087725076;1325.405;36;6;1.5;1.1;2;600;2.5;0.9848077;1.673648;0.5883616;1.583507;-0.8660251;0.9999995;-0.6567295;1.279735;
637953105094636636;1326.104;36;6;1.5;1.1;2;700;2.14285714285714;-0.9848078;1.673648;-0.6881081;1.660106;0.9848077;1.673648;0.5883616;1.583507;
637953105100637986;1326.704;36;6;1.5;1.1;2;600;2.5;0.8660256;1;0.7278075;0.9921294;-0.9848078;1.673648;-0.6881081;1.660106;
637953105106629332;1327.304;36;6;1.5;1.1;2;600;2.5;-0.6427882;2.266044;-0.3046402;1.902675;0.8660256;1;0.7278075;0.9921294;
637953105113630905;1328.004;36;6;1.5;1.1;2;700;2.14285714285714;0.3420205;0.5603075;0.3502972;1.01729;-0.6427882;2.266044;-0.3046402;1.902675;
637953105137626302;1330.402;36;6;2.5;0.3;1.4;1799;1.38966092273485;-0.2394138;0.8422151;-0.2282256;0.8656186;0;2.2;-0.03731463;2.072574;
637953105146618322;1331.302;36;6;2.5;0.3;1.4;899;2.78086763070078;0.4499513;2.036231;0.3614022;1.99548;-0.2394138;0.8422151;-0.2282256;0.8656186;
637953105155720369;1332.213;36;6;2.5;0.3;1.4;911;2.74423710208562;-0.6062176;1.15;-0.5653946;1.196909;0.4499513;2.036231;0.3614022;1.99548;
637953105167713066;1333.412;36;6;2.5;0.3;1.4;1200;2.08333333333333;0.6893654;1.621554;0.6221337;1.664009;-0.6062176;1.15;-0.5653946;1.196909;
637953105174714640;1334.112;36;6;2.5;0.3;1.4;699;3.57653791130186;-0.6893655;1.621553;-0.5912288;1.614109;0.6893654;1.621554;0.6221337;1.664009;
637953105183716664;1335.012;36;6;2.5;0.3;1.4;900;2.77777777777778;0.6062179;1.15;0.5576747;1.134781;-0.6893655;1.621553;-0.5912288;1.614109;
637953105197039659;1336.352;36;6;2.5;0.3;1.4;1341;1.86428038777032;-0.4499517;2.036231;-0.3990468;1.896275;0.6062179;1.15;0.5576747;1.134781;
637953105206701833;1337.311;36;6;2.5;0.3;1.4;958;2.60960334029228;0.2394144;0.8422153;0.3112175;0.9236519;-0.4499517;2.036231;-0.3990468;1.896275;
637953105227686549;1339.409;36;6;3.5;0.2;2;1099;3.18471337579618;-0.3420197;0.5603072;-0.3385404;0.600105;0;2.5;0.07400568;2.464187;
637953105237688798;1340.409;36;6;3.5;0.2;2;1000;3.5;0.6427875;2.266045;0.5910621;2.19578;-0.3420197;0.5603072;-0.3385404;0.600105;
637953105249681496;1341.608;36;6;3.5;0.2;2;1200;2.91666666666667;-0.8660251;0.9999995;-0.846429;0.9911203;0.6427875;2.266045;0.5910621;2.19578;
637953105264676589;1343.108;36;6;3.5;0.2;2;1499;2.33488992661775;0.9848077;1.673648;0.9004437;1.641129;-0.8660251;0.9999995;-0.846429;0.9911203;
637953105274668837;1344.107;36;6;3.5;0.2;2;1000;3.5;-0.9848078;1.673648;-0.9160986;1.644079;0.9848077;1.673648;0.9004437;1.641129;
637953105284661081;1345.107;36;6;3.5;0.2;2;999;3.5035035035035;0.8660256;1;0.8037969;1.012745;-0.9848078;1.673648;-0.9160986;1.644079;
637953105292662916;1345.906;36;6;3.5;0.2;2;800;4.375;-0.6427882;2.266044;-0.6123891;2.201978;0.8660256;1;0.8037969;1.012745;
637953105300659398;1346.706;36;6;3.5;0.2;2;799;4.38047559449312;0.3420205;0.5603075;0.3368464;0.6065028;-0.6427882;2.266044;-0.6123891;2.201978;
637953105318757821;1348.516;36;6;3;0.2;1.4;899;3.33704115684093;-0.2394138;0.8422151;-0.2358458;0.8227267;0;2.2;0.01538141;2.203317;
637953105326755839;1349.316;36;6;3;0.2;1.4;800;3.75;0.4499513;2.036231;0.422252;2.064952;-0.2394138;0.8422151;-0.2358458;0.8227267;
637953105343745591;1351.015;36;6;3;0.2;1.4;1699;1.76574455562095;-0.6062176;1.15;-0.5714746;1.111178;0.4499513;2.036231;0.422252;2.064952;
637953105356738511;1352.314;36;6;3;0.2;1.4;1299;2.3094688221709;0.6893654;1.621554;0.6963815;1.599094;-0.6062176;1.15;-0.5714746;1.111178;
637953105367740988;1353.414;36;6;3;0.2;1.4;1100;2.72727272727273;-0.6893655;1.621553;-0.6598274;1.652005;0.6893654;1.621554;0.6963815;1.599094;
637953105378733459;1354.513;36;6;3;0.2;1.4;1099;2.72975432211101;0.6062179;1.15;0.5691556;1.225439;-0.6893655;1.621553;-0.6598274;1.652005;
637953105387725479;1355.413;36;6;3;0.2;1.4;900;3.33333333333333;-0.4499517;2.036231;-0.4846267;2.024552;0.6062179;1.15;0.5691556;1.225439;
637953105399718181;1356.613;36;6;3;0.2;1.4;1199;2.50208507089241;0.2394144;0.8422153;0.2029978;0.8707451;-0.4499517;2.036231;-0.4846267;2.024552;
637953105433815843;1360.022;36;6;4.5;0.1;2.2;2210;2.03619909502262;-0.3762217;0.4663379;-0.3825718;0.482061;0;2.6;-0.01364129;2.582341;
637953105448809212;1361.521;36;6;4.5;0.1;2.2;1499;3.00200133422282;0.7070663;2.342649;0.6719088;2.338914;-0.3762217;0.4663379;-0.3825718;0.482061;
637953105462812360;1362.921;36;6;4.5;0.1;2.2;1400;3.21428571428571;-0.9526277;0.9499994;-0.9752168;0.9739602;0.7070663;2.342649;0.6719088;2.338914;
637953105474795054;1364.12;36;6;4.5;0.1;2.2;1199;3.75312760633862;1.083289;1.691013;1.050081;1.68353;-0.9526277;0.9499994;-0.9752168;0.9739602;
637953105494789552;1366.119;36;6;4.5;0.1;2.2;1999;2.25112556278139;-1.083289;1.691012;-1.081273;1.720769;1.083289;1.691013;1.050081;1.68353;
637953105507782472;1367.419;36;6;4.5;0.1;2.2;1299;3.46420323325635;0.9526281;0.9500003;0.9221253;0.9884013;-1.083289;1.691012;-1.081273;1.720769;
637953105524886317;1369.129;36;6;4.5;0.1;2.2;1711;2.63004091174752;-0.7070671;2.342648;-0.6943507;2.333562;0.9526281;0.9500003;0.9221253;0.9884013;
637953105537879239;1370.428;36;6;4.5;0.1;2.2;1299;3.46420323325635;0.3762226;0.4663382;0.3425297;0.5001615;-0.7070671;2.342648;-0.6943507;2.333562;
637953106077088812;1424.348;36;7;3.5;0.2;2;1099;3.18471337579618;-0.3420197;0.5603072;-0.3590554;0.6518402;0;2.5;0.002375776;2.47657;
637953106085088325;1425.148;36;7;3.5;0.2;2;800;4.375;0.6427875;2.266045;0.6007617;2.206847;-0.3420197;0.5603072;-0.3590554;0.6518402;
637953106096088313;1426.248;36;7;3.5;0.2;2;1100;3.18181818181818;-0.8660251;0.9999995;-0.7719447;1.020728;0.6427875;2.266045;0.6007617;2.206847;
637953106108079123;1427.447;36;7;3.5;0.2;2;1199;2.91909924937448;0.9848077;1.673648;0.9472381;1.668611;-0.8660251;0.9999995;-0.7719447;1.020728;
637953106117418666;1428.388;36;7;3.5;0.2;2;941;3.71944739638682;-0.9848078;1.673648;-0.890784;1.642729;0.9848077;1.673648;0.9472381;1.668611;
637953106145176066;1431.157;36;7;3.5;0.2;2;2769;1.2639942217407;0.8660256;1;0.8498759;1.063319;-0.9848078;1.673648;-0.890784;1.642729;
637953106156167408;1432.256;36;7;3.5;0.2;2;1099;3.18471337579618;-0.6427882;2.266044;-0.5736282;2.211442;0.8660256;1;0.8498759;1.063319;
637953106166159656;1433.255;36;7;3.5;0.2;2;999;3.5035035035035;0.3420205;0.5603075;0.3711528;0.5535971;-0.6427882;2.266044;-0.5736282;2.211442;
637953106185163927;1435.155;36;7;3;0.2;1.4;900;3.33333333333333;-0.2394138;0.8422151;-0.228729;0.853215;0;2.2;0.05655836;2.180327;
637953106204148196;1437.054;36;7;3;0.2;1.4;1899;1.57977883096367;0.4499513;2.036231;0.4694841;2.066623;-0.2394138;0.8422151;-0.228729;0.853215;
637953106216140890;1438.253;36;7;3;0.2;1.4;1199;2.50208507089241;-0.6062176;1.15;-0.5827702;1.188591;0.4499513;2.036231;0.4694841;2.066623;
637953106225242939;1439.164;36;7;3;0.2;1.4;911;3.29308452250274;0.6893654;1.621554;0.6309528;1.652206;-0.6062176;1.15;-0.5827702;1.188591;
637953106234244964;1440.064;36;7;3;0.2;1.4;900;3.33333333333333;-0.6893655;1.621553;-0.7445291;1.632713;0.6893654;1.621554;0.6309528;1.652206;
637953106246237659;1441.263;36;7;3;0.2;1.4;1199;2.50208507089241;0.6062179;1.15;0.5581612;1.237208;-0.6893655;1.621553;-0.7445291;1.632713;
637953106258230355;1442.462;36;7;3;0.2;1.4;1199;2.50208507089241;-0.4499517;2.036231;-0.5048022;2.070644;0.6062179;1.15;0.5581612;1.237208;
637953106273223730;1443.961;36;7;3;0.2;1.4;1499;2.00133422281521;0.2394144;0.8422153;0.2514129;0.889964;-0.4499517;2.036231;-0.5048022;2.070644;
637953106289217323;1445.561;36;7;2;0.6;1.8;899;2.22469410456062;-0.3078177;0.6542765;-0.2381855;0.8511823;0;2.4;0.07866818;2.17823;
637953106297219122;1446.361;36;7;2;0.6;1.8;800;2.5;0.5785087;2.18944;0.5153466;2.102168;-0.3078177;0.6542765;-0.2381855;0.8511823;
637953106303210469;1446.96;36;7;2;0.6;1.8;600;3.33333333333333;-0.7794226;1.05;-0.6093574;1.285861;0.5785087;2.18944;0.5153466;2.102168;
637953106311222270;1447.761;36;7;2;0.6;1.8;801;2.49687890137328;0.8863269;1.656283;0.8421086;1.699488;-0.7794226;1.05;-0.6093574;1.285861;
637953106321204510;1448.759;36;7;2;0.6;1.8;998;2.00400801603206;-0.8863271;1.656283;-0.7148194;1.693244;0.8863269;1.656283;0.8421086;1.699488;
637953106329196312;1449.559;36;7;2;0.6;1.8;800;2.5;0.779423;1.05;0.5852742;1.199116;-0.8863271;1.656283;-0.7148194;1.693244;
637953106336197884;1450.259;36;7;2;0.6;1.8;700;2.85714285714286;-0.5785094;2.18944;-0.4806745;2.037247;0.779423;1.05;0.5852742;1.199116;
637953106343189457;1450.958;36;7;2;0.6;1.8;699;2.86123032904149;0.3078185;0.6542768;0.07086586;0.6061797;-0.5785094;2.18944;-0.4806745;2.037247;
637953106358182827;1452.458;36;7;1.5;1.1;2;800;1.875;-0.3420197;0.5603072;-0.2072129;1.008976;0;2.5;0.09082291;2.204238;
637953106364184178;1453.057;36;7;1.5;1.1;2;600;2.5;0.6427875;2.266045;0.4273195;1.956214;-0.3420197;0.5603072;-0.2072129;1.008976;
637953106381288027;1454.768;36;7;1.5;1.1;2;1710;0.87719298245614;-0.8660251;0.9999995;-0.6999187;1.269088;0.6427875;2.266045;0.4273195;1.956214;
637953106388289596;1455.468;36;7;1.5;1.1;2;700;2.14285714285714;0.9848077;1.673648;0.5607334;1.598879;-0.8660251;0.9999995;-0.6999187;1.269088;
637953106394280943;1456.067;36;7;1.5;1.1;2;599;2.50417362270451;-0.9848078;1.673648;-0.498243;1.689356;0.9848077;1.673648;0.5607334;1.598879;
637953106405273416;1457.167;36;7;1.5;1.1;2;1100;1.36363636363636;0.8660256;1;0.5559621;1.230746;-0.9848078;1.673648;-0.498243;1.689356;
637953106411274765;1457.766;36;7;1.5;1.1;2;600;2.5;-0.6427882;2.266044;-0.3196694;1.98862;0.8660256;1;0.5559621;1.230746;
637953106417276115;1458.366;36;7;1.5;1.1;2;600;2.5;0.3420205;0.5603075;0.1150154;0.852124;-0.6427882;2.266044;-0.3196694;1.98862;
637953106445262405;1461.165;36;7;4.5;0.1;2.2;1400;3.21428571428571;-0.3762217;0.4663379;-0.4169047;0.4833035;0;2.6;0.006331556;2.564352;
637953106465251075;1463.164;36;7;4.5;0.1;2.2;1999;2.25112556278139;0.7070663;2.342649;0.6888648;2.324084;-0.3762217;0.4663379;-0.4169047;0.4833035;
637953106482491294;1464.895;36;7;4.5;0.1;2.2;1731;2.59965337954939;-0.9526277;0.9499994;-0.9029856;0.9490227;0.7070663;2.342649;0.6888648;2.324084;
637953106493253711;1465.964;36;7;4.5;0.1;2.2;1069;4.20954162768943;1.083289;1.691013;1.082552;1.70607;-0.9526277;0.9499994;-0.9029856;0.9490227;
637953106513230538;1467.962;36;7;4.5;0.1;2.2;1998;2.25225225225225;-1.083289;1.691012;-1.059734;1.656958;1.083289;1.691013;1.082552;1.70607;
637953106529335815;1469.572;36;7;4.5;0.1;2.2;1611;2.79329608938547;0.9526281;0.9500003;0.9256074;0.9790301;-1.083289;1.691012;-1.059734;1.656958;
637953106542325305;1470.872;36;7;4.5;0.1;2.2;1299;3.46420323325635;-0.7070671;2.342648;-0.6975013;2.32578;0.9526281;0.9500003;0.9256074;0.9790301;
637953106554324836;1472.071;36;7;4.5;0.1;2.2;1199;3.75312760633862;0.3762226;0.4663382;0.37099;0.4886675;-0.7070671;2.342648;-0.6975013;2.32578;
637953106593321772;1475.971;36;7;2.5;0.3;1.4;1101;2.27066303360581;-0.2394138;0.8422151;-0.2358236;0.8928106;0;2.2;-0.03236178;2.183694;
637953106602293781;1476.869;36;7;2.5;0.3;1.4;898;2.78396436525612;0.4499513;2.036231;0.4237301;2.039334;-0.2394138;0.8422151;-0.2358236;0.8928106;
637953106610295580;1477.669;36;7;2.5;0.3;1.4;800;3.125;-0.6062176;1.15;-0.5213815;1.12816;0.4499513;2.036231;0.4237301;2.039334;
637953106618287377;1478.468;36;7;2.5;0.3;1.4;800;3.125;0.6893654;1.621554;0.6544524;1.626867;-0.6062176;1.15;-0.5213815;1.12816;
637953106628299629;1479.469;36;7;2.5;0.3;1.4;1000;2.5;-0.6893655;1.621553;-0.6157729;1.598513;0.6893654;1.621554;0.6544524;1.626867;
637953106636381447;1480.278;36;7;2.5;0.3;1.4;810;3.08641975308642;0.6062179;1.15;0.6617355;1.196863;-0.6893655;1.621553;-0.6157729;1.598513;
637953106643373016;1480.978;36;7;2.5;0.3;1.4;700;3.57142857142857;-0.4499517;2.036231;-0.4522159;2.011586;0.6062179;1.15;0.6617355;1.196863;
637953106651374818;1481.777;36;7;2.5;0.3;1.4;800;3.125;0.2394144;0.8422153;0.1930771;0.9426287;-0.4499517;2.036231;-0.4522159;2.011586;
637953106693364256;1485.976;36;7;4;0.1;1.4;3298;1.21285627653123;-0.2394138;0.8422151;-0.2429718;0.8554686;0;2.2;0.04273306;2.187902;
637953106708347626;1487.475;36;7;4;0.1;1.4;1499;2.66844563042028;0.4499513;2.036231;0.4361709;2.009686;-0.2394138;0.8422151;-0.2429718;0.8554686;
637953106726341672;1489.274;36;7;4;0.1;1.4;1799;2.22345747637576;-0.6062176;1.15;-0.585748;1.151419;0.4499513;2.036231;0.4361709;2.009686;
637953106738334369;1490.474;36;7;4;0.1;1.4;1199;3.33611342785655;0.6893654;1.621554;0.6424574;1.616098;-0.6062176;1.15;-0.585748;1.151419;
637953106757328639;1492.373;36;7;4;0.1;1.4;1899;2.10637177461822;-0.6893655;1.621553;-0.6656869;1.583033;0.6893654;1.621554;0.6424574;1.616098;
637953106772322012;1493.872;36;7;4;0.1;1.4;1499;2.66844563042028;0.6062179;1.15;0.5814967;1.191643;-0.6893655;1.621553;-0.6656869;1.583033;
637953106783424506;1494.983;36;7;4;0.1;1.4;1111;3.6003600360036;-0.4499517;2.036231;-0.4585318;2.019917;0.6062179;1.15;0.5814967;1.191643;
637953106796417427;1496.282;36;7;4;0.1;1.4;1299;3.07929176289453;0.2394144;0.8422153;0.2432866;0.8877654;-0.4499517;2.036231;-0.4585318;2.019917;
