637953119517313665;319.3776;39;0;2.5;0.3;1.4;1299;1.92455735180908;-0.2394138;0.8422151;-0.2303664;0.8655409;0;2.2;0.06457707;2.180336;
637953119529296358;320.577;39;0;2.5;0.3;1.4;1199;2.08507089241034;0.4499513;2.036231;0.4240255;2.075448;-0.2394138;0.8422151;-0.2303664;0.8655409;
637953119550401108;322.6873;39;0;2.5;0.3;1.4;2110;1.18483412322275;-0.6062176;1.15;-0.566532;1.202255;0.4499513;2.036231;0.4240255;2.075448;
637953119572396050;324.8861;39;0;2.5;0.3;1.4;2199;1.1368804001819;0.6893654;1.621554;0.6455711;1.669041;-0.6062176;1.15;-0.566532;1.202255;
637953119587389418;326.3857;39;0;2.5;0.3;1.4;1500;1.66666666666667;-0.6893655;1.621553;-0.6043327;1.603004;0.6893654;1.621554;0.6455711;1.669041;
637953119600382340;327.6849;39;0;2.5;0.3;1.4;1299;1.92455735180908;0.6062179;1.15;0.5757268;1.211119;-0.6893655;1.621553;-0.6043327;1.603004;
637953119612375038;328.8845;39;0;2.5;0.3;1.4;1200;2.08333333333333;-0.4499517;2.036231;-0.3705002;2.039292;0.6062179;1.15;0.5757268;1.211119;
637953119624487754;330.0954;39;0;2.5;0.3;1.4;1211;2.06440957886045;0.2394144;0.8422153;0.1852388;0.933969;-0.4499517;2.036231;-0.3705002;2.039292;
637953119649358403;332.5827;39;0;3;0.2;1.4;1200;2.5;-0.2394138;0.8422151;-0.2275306;0.868892;0;2.2;-0.002343584;2.189022;
637953119662347673;333.882;39;0;3;0.2;1.4;1299;2.3094688221709;0.4499513;2.036231;0.4379838;2.010863;-0.2394138;0.8422151;-0.2275306;0.868892;
637953119676340818;335.2812;39;0;3;0.2;1.4;1399;2.14438884917798;-0.6062176;1.15;-0.6092594;1.169772;0.4499513;2.036231;0.4379838;2.010863;
637953119690443989;336.6918;39;0;3;0.2;1.4;1411;2.12615166548547;0.6893654;1.621554;0.6877059;1.67814;-0.6062176;1.15;-0.6092594;1.169772;
637953119712440080;338.8908;39;0;3;0.2;1.4;2199;1.36425648021828;-0.6893655;1.621553;-0.7037398;1.619955;0.6893654;1.621554;0.6877059;1.67814;
637953119726486146;340.2955;39;0;3;0.2;1.4;1405;2.13523131672598;0.6062179;1.15;0.5693253;1.182238;-0.6893655;1.621553;-0.7037398;1.619955;
637953119742529755;341.9003;39;0;3;0.2;1.4;1605;1.86915887850467;-0.4499517;2.036231;-0.3954751;2.01397;0.6062179;1.15;0.5693253;1.182238;
637953119760523800;343.6995;39;0;3;0.2;1.4;1799;1.66759310728182;0.2394144;0.8422153;0.2355135;0.8629495;-0.4499517;2.036231;-0.3954751;2.01397;
637953119792510994;346.8982;39;0;2;0.6;1.8;1399;1.42959256611866;-0.3078177;0.6542765;-0.2914177;0.7723252;0;2.4;0.03185404;2.512221;
637953119804503687;348.0977;39;0;2;0.6;1.8;1200;1.66666666666667;0.5785087;2.18944;0.5718376;2.322251;-0.3078177;0.6542765;-0.2914177;0.7723252;
637953119816506388;349.2972;39;0;2;0.6;1.8;1199;1.66805671392827;-0.7794226;1.05;-0.6867988;1.169792;0.5785087;2.18944;0.5718376;2.322251;
637953119830499535;350.6971;39;0;2;0.6;1.8;1400;1.42857142857143;0.8863269;1.656283;0.7383228;1.655122;-0.7794226;1.05;-0.6867988;1.169792;
637953119841491999;351.7962;39;0;2;0.6;1.8;1099;1.81983621474067;-0.8863271;1.656283;-0.7749754;1.711208;0.8863269;1.656283;0.7383228;1.655122;
637953119859476048;353.5948;39;0;2;0.6;1.8;1799;1.11172873818788;0.779423;1.05;0.630249;1.138562;-0.8863271;1.656283;-0.7749754;1.711208;
637953119870478522;354.6945;39;0;2;0.6;1.8;1100;1.81818181818182;-0.5785094;2.18944;-0.5286158;2.243042;0.779423;1.05;0.630249;1.138562;
637953119891473244;356.7938;39;0;2;0.6;1.8;2099;0.952834683182468;0.3078185;0.6542768;0.2520945;0.8664882;-0.5785094;2.18944;-0.5286158;2.243042;
637953119941564504;361.803;39;0;4;0.1;1.4;2599;1.5390534821085;-0.2394138;0.8422151;-0.2751682;0.8577899;0;2.2;0.008624349;2.215302;
637953119960548773;363.7016;39;0;4;0.1;1.4;1899;2.10637177461822;0.4499513;2.036231;0.4469065;2.018013;-0.2394138;0.8422151;-0.2751682;0.8577899;
637953119989535290;366.6001;39;0;4;0.1;1.4;2785;1.43626570915619;-0.6062176;1.15;-0.6094211;1.163929;0.4499513;2.036231;0.4469065;2.018013;
637953120005528884;368.1996;39;0;4;0.1;1.4;1599;2.50156347717323;0.6893654;1.621554;0.65038;1.643432;-0.6062176;1.15;-0.6094211;1.163929;
637953120027629181;370.4096;39;0;4;0.1;1.4;2210;1.80995475113122;-0.6893655;1.621553;-0.6762097;1.64688;0.6893654;1.621554;0.65038;1.643432;
637953120050724002;372.7198;39;0;4;0.1;1.4;2310;1.73160173160173;0.6062179;1.15;0.6222747;1.168361;-0.6893655;1.621553;-0.6762097;1.64688;
637953120078718374;375.5184;39;0;4;0.1;1.4;2799;1.4290818149339;-0.4499517;2.036231;-0.4579119;2.059223;0.6062179;1.15;0.6222747;1.168361;
637953120093707460;377.0177;39;0;4;0.1;1.4;1499;2.66844563042028;0.2394144;0.8422153;0.2072343;0.874499;-0.4499517;2.036231;-0.4579119;2.059223;
637953120137692072;381.4158;39;0;4.5;0.1;2.2;1999;2.25112556278139;-0.3762217;0.4663379;-0.4191316;0.4725997;0;2.6;0.002995551;2.604584;
637953120174880432;385.1345;39;0;4.5;0.1;2.2;3719;1.21000268889486;0.7070663;2.342649;0.743587;2.314534;-0.3762217;0.4663379;-0.4191316;0.4725997;
637953120204877178;388.1347;39;0;4.5;0.1;2.2;3000;1.5;-0.9526277;0.9499994;-0.9431774;0.9918823;0.7070663;2.342649;0.743587;2.314534;
637953120238864820;391.5332;39;0;4.5;0.1;2.2;3398;1.32430841671572;1.083289;1.691013;1.063286;1.717324;-0.9526277;0.9499994;-0.9431774;0.9918823;
637953120264850663;394.1321;39;0;4.5;0.1;2.2;2599;1.73143516737207;-1.083289;1.691012;-1.074886;1.699947;1.083289;1.691013;1.063286;1.717324;
637953120293967206;397.043;39;0;4.5;0.1;2.2;2911;1.54586052902783;0.9526281;0.9500003;0.9270709;0.9595954;-1.083289;1.691012;-1.074886;1.699947;
637953120329935296;400.6405;39;0;4.5;0.1;2.2;3598;1.25069483046137;-0.7070671;2.342648;-0.7014354;2.315016;0.9526281;0.9500003;0.9270709;0.9595954;
637953120349919787;402.6393;39;0;4.5;0.1;2.2;1999;2.25112556278139;0.3762226;0.4663382;0.3450981;0.500367;-0.7070671;2.342648;-0.7014354;2.315016;
637953120386908105;406.3379;39;0;3.5;0.2;2;1999;1.75087543771886;-0.3420197;0.5603072;-0.3296743;0.5995529;0;2.5;0.001503332;2.464908;
637953120405898460;408.2366;39;0;3.5;0.2;2;1899;1.84307530279094;0.6427875;2.266045;0.6062503;2.281662;-0.3420197;0.5603072;-0.3296743;0.5995529;
637953120421010485;409.7471;39;0;3.5;0.2;2;1511;2.31634679020516;-0.8660251;0.9999995;-0.8608596;1.066409;0.6427875;2.266045;0.6062503;2.281662;
637953120435003649;411.1473;39;0;3.5;0.2;2;1400;2.5;0.9848077;1.673648;0.9330007;1.664049;-0.8660251;0.9999995;-0.8608596;1.066409;
637953120448992079;412.5457;39;0;3.5;0.2;2;1398;2.5035765379113;-0.9848078;1.673648;-0.9937193;1.666201;0.9848077;1.673648;0.9330007;1.664049;
637953120467986350;414.4451;39;0;3.5;0.2;2;1899;1.84307530279094;0.8660256;1;0.8088841;1.063826;-0.9848078;1.673648;-0.9937193;1.666201;
637953120491971742;416.8435;39;0;3.5;0.2;2;2398;1.45954962468724;-0.6427882;2.266044;-0.5836011;2.33226;0.8660256;1;0.8088841;1.063826;
637953120515957137;419.2427;39;0;3.5;0.2;2;2399;1.45894122551063;0.3420205;0.5603075;0.269435;0.5725981;-0.6427882;2.266044;-0.5836011;2.33226;
637953120543943427;422.0412;39;0;1.5;1.1;2;1099;1.36487716105551;-0.3420197;0.5603072;-0.2962991;0.8521714;0;2.5;-0.01368371;2.531639;
637953120568048848;424.4517;39;0;1.5;1.1;2;2410;0.622406639004149;0.6427875;2.266045;0.3838634;2.242338;-0.3420197;0.5603072;-0.2962991;0.8521714;
637953120581181798;425.7653;39;0;1.5;1.1;2;1314;1.14155251141552;-0.8660251;0.9999995;-0.9065825;1.086268;0.6427875;2.266045;0.3838634;2.242338;
637953120593034464;426.9501;39;0;1.5;1.1;2;1185;1.26582278481013;0.9848077;1.673648;1.033488;1.759687;-0.8660251;0.9999995;-0.9065825;1.086268;
637953120602016483;427.8487;39;0;1.5;1.1;2;899;1.66852057842047;-0.9848078;1.673648;-0.9428572;1.740343;0.9848077;1.673648;1.033488;1.759687;
637953120612028734;428.8491;39;0;1.5;1.1;2;1000;1.5;0.8660256;1;0.6490935;1.20526;-0.9848078;1.673648;-0.9428572;1.740343;
637953120618030086;429.4493;39;0;1.5;1.1;2;600;2.5;-0.6427882;2.266044;-0.4680879;2.120586;0.8660256;1;0.6490935;1.20526;
637953120630012778;430.6486;39;0;1.5;1.1;2;1199;1.25104253544621;0.3420205;0.5603075;0.1215109;0.8971895;-0.6427882;2.266044;-0.4680879;2.120586;
637953121763403872;543.9854;39;1;4.5;0.1;2.2;4197;1.07219442458899;-0.3762217;0.4663379;-0.3535612;0.469192;0;2.6;0.01638325;2.552862;
637953121801393818;547.7837;39;1;4.5;0.1;2.2;3798;1.18483412322275;0.7070663;2.342649;0.6799866;2.346817;-0.3762217;0.4663379;-0.3535612;0.469192;
637953121826485013;550.2936;39;1;4.5;0.1;2.2;2510;1.79282868525896;-0.9526277;0.9499994;-0.93509;0.9710754;0.7070663;2.342649;0.6799866;2.346817;
637953121841478385;551.7932;39;1;4.5;0.1;2.2;1500;3;1.083289;1.691013;1.054028;1.718091;-0.9526277;0.9499994;-0.93509;0.9710754;
637953121865465222;554.1918;39;1;4.5;0.1;2.2;2399;1.87578157565652;-1.083289;1.691012;-1.074135;1.657326;1.083289;1.691013;1.054028;1.718091;
637953121886454448;556.2908;39;1;4.5;0.1;2.2;2099;2.14387803716055;0.9526281;0.9500003;0.9328798;0.9942398;-1.083289;1.691012;-1.074135;1.657326;
637953121905448717;558.1899;39;1;4.5;0.1;2.2;1899;2.3696682464455;-0.7070671;2.342648;-0.704212;2.353857;0.9526281;0.9500003;0.9328798;0.9942398;
637953121923442762;559.9892;39;1;4.5;0.1;2.2;1799;2.50138966092273;0.3762226;0.4663382;0.3519151;0.5073402;-0.7070671;2.342648;-0.704212;2.353857;
637953121993518517;566.9969;39;1;4;0.1;1.4;2299;1.73988690735102;-0.2394138;0.8422151;-0.2371307;0.8534887;0;2.2;-0.001645536;2.194219;
637953122011512565;568.7963;39;1;4;0.1;1.4;1799;2.22345747637576;0.4499513;2.036231;0.4626394;2.010671;-0.2394138;0.8422151;-0.2371307;0.8534887;
637953122025505712;570.1956;39;1;4;0.1;1.4;1399;2.85918513223731;-0.6062176;1.15;-0.5845188;1.193175;0.4499513;2.036231;0.4626394;2.010671;
637953122041499304;571.7949;39;1;4;0.1;1.4;1599;2.50156347717323;0.6893654;1.621554;0.6635004;1.632498;-0.6062176;1.15;-0.5845188;1.193175;
637953122069815670;574.6341;39;1;4;0.1;1.4;2839;1.40894681225784;-0.6893655;1.621553;-0.7327667;1.633913;0.6893654;1.621554;0.6635004;1.632498;
637953122087469640;576.3928;39;1;4;0.1;1.4;1759;2.2740193291643;0.6062179;1.15;0.5681791;1.145792;-0.6893655;1.621553;-0.7327667;1.633913;
637953122115575960;579.2026;39;1;4;0.1;1.4;2810;1.42348754448399;-0.4499517;2.036231;-0.4352027;2.0391;0.6062179;1.15;0.5681791;1.145792;
637953122133560005;581.0018;39;1;4;0.1;1.4;1799;2.22345747637576;0.2394144;0.8422153;0.2491831;0.8678668;-0.4499517;2.036231;-0.4352027;2.0391;
637953122160551120;583.7006;39;1;1.5;1.1;2;1300;1.15384615384615;-0.3420197;0.5603072;-0.2610797;1.058445;0;2.5;-0.0682035;2.414257;
637953122170541679;584.6998;39;1;1.5;1.1;2;999;1.5015015015015;0.6427875;2.266045;0.5706193;2.282022;-0.3420197;0.5603072;-0.2610797;1.058445;
637953122183540344;585.9995;39;1;1.5;1.1;2;1300;1.15384615384615;-0.8660251;0.9999995;-0.7818601;1.123841;0.6427875;2.266045;0.5706193;2.282022;
637953122194532818;587.0987;39;1;1.5;1.1;2;1099;1.36487716105551;0.9848077;1.673648;0.8497784;1.76545;-0.8660251;0.9999995;-0.7818601;1.123841;
637953122205525286;588.1985;39;1;1.5;1.1;2;1100;1.36363636363636;-0.9848078;1.673648;-0.8754073;1.683644;0.9848077;1.673648;0.8497784;1.76545;
637953122216527760;589.2979;39;1;1.5;1.1;2;1099;1.36487716105551;0.8660256;1;0.5868875;1.238601;-0.9848078;1.673648;-0.8754073;1.683644;
637953122226514858;590.2972;39;1;1.5;1.1;2;999;1.5015015015015;-0.6427882;2.266044;-0.6381953;2.108452;0.8660256;1;0.5868875;1.238601;
637953122237625192;591.4079;39;1;1.5;1.1;2;1111;1.35013501350135;0.3420205;0.5603075;0.2170419;0.8733838;-0.6427882;2.266044;-0.6381953;2.108452;
637953122259610603;593.6069;39;1;2.5;0.3;1.4;1099;2.27479526842584;-0.2394138;0.8422151;-0.191485;0.9323545;0;2.2;-0.03969247;2.168265;
637953122269732875;594.618;39;1;2.5;0.3;1.4;1011;2.47279920870425;0.4499513;2.036231;0.3109533;2.052412;-0.2394138;0.8422151;-0.191485;0.9323545;
637953122283605997;596.0061;39;1;2.5;0.3;1.4;1388;1.80115273775216;-0.6062176;1.15;-0.6165539;1.198788;0.4499513;2.036231;0.3109533;2.052412;
637953122298709392;597.5162;39;1;2.5;0.3;1.4;1510;1.65562913907285;0.6893654;1.621554;0.5752626;1.635327;-0.6062176;1.15;-0.6165539;1.198788;
637953122312692536;598.9159;39;1;2.5;0.3;1.4;1400;1.78571428571429;-0.6893655;1.621553;-0.6657389;1.644644;0.6893654;1.621554;0.5752626;1.635327;
637953122326675670;600.3149;39;1;2.5;0.3;1.4;1399;1.78699070764832;0.6062179;1.15;0.6012518;1.165111;-0.6893655;1.621553;-0.6657389;1.644644;
637953122337678152;601.4145;39;1;2.5;0.3;1.4;1100;2.27272727272727;-0.4499517;2.036231;-0.4041083;2.003937;0.6062179;1.15;0.6012518;1.165111;
637953122348670625;602.514;39;1;2.5;0.3;1.4;1100;2.27272727272727;0.2394144;0.8422153;0.1505061;0.852981;-0.4499517;2.036231;-0.4041083;2.003937;
637953122368665120;604.5132;39;1;3;0.2;1.4;1000;3;-0.2394138;0.8422151;-0.2477596;0.9042681;0;2.2;-0.04468041;2.214608;
637953122382658266;605.9127;39;1;3;0.2;1.4;1399;2.14438884917798;0.4499513;2.036231;0.371213;2.037701;-0.2394138;0.8422151;-0.2477596;0.9042681;
637953122396761438;607.3227;39;1;3;0.2;1.4;1410;2.12765957446809;-0.6062176;1.15;-0.5925013;1.088387;0.4499513;2.036231;0.371213;2.037701;
637953122440741329;611.7208;39;1;3;0.2;1.4;4398;0.682128240109141;0.6893654;1.621554;0.6526424;1.631455;-0.6062176;1.15;-0.5925013;1.088387;
637953122458735371;613.5202;39;1;3;0.2;1.4;1799;1.66759310728182;-0.6893655;1.621553;-0.6510945;1.611611;0.6893654;1.621554;0.6526424;1.631455;
637953122475719188;615.2193;39;1;3;0.2;1.4;1699;1.76574455562095;0.6062179;1.15;0.5517394;1.187046;-0.6893655;1.621553;-0.6510945;1.611611;
637953122489712333;616.6185;39;1;3;0.2;1.4;1399;2.14438884917798;-0.4499517;2.036231;-0.4231927;2.030103;0.6062179;1.15;0.5517394;1.187046;
637953122512707506;618.9175;39;1;3;0.2;1.4;2299;1.30491518051327;0.2394144;0.8422153;0.17215;0.8599899;-0.4499517;2.036231;-0.4231927;2.030103;
637953122541809098;621.8274;39;1;3.5;0.2;2;1599;2.18886804252658;-0.3420197;0.5603072;-0.2733547;0.5970309;0;2.5;0.004229398;2.521355;
637953122560793395;623.7265;39;1;3.5;0.2;2;1899;1.84307530279094;0.6427875;2.266045;0.6034702;2.189468;-0.3420197;0.5603072;-0.2733547;0.5970309;
637953122589779652;626.6254;39;1;3.5;0.2;2;2899;1.20731286650569;-0.8660251;0.9999995;-0.8504022;1.009293;0.6427875;2.266045;0.6034702;2.189468;
637953122612770708;628.9239;39;1;3.5;0.2;2;2299;1.52240104393214;0.9848077;1.673648;0.9564657;1.720657;-0.8660251;0.9999995;-0.8504022;1.009293;
637953122646748345;632.3223;39;1;3.5;0.2;2;3398;1.03001765744556;-0.9848078;1.673648;-0.9273804;1.661301;0.9848077;1.673648;0.9564657;1.720657;
637953122665742625;634.2215;39;1;3.5;0.2;2;1899;1.84307530279094;0.8660256;1;0.8670939;1.065909;-0.9848078;1.673648;-0.9273804;1.661301;
637953122689848035;636.6315;39;1;3.5;0.2;2;2410;1.45228215767635;-0.6427882;2.266044;-0.66157;2.239447;0.8660256;1;0.8670939;1.065909;
637953122713833427;639.0306;39;1;3.5;0.2;2;2399;1.45894122551063;0.3420205;0.5603075;0.3536758;0.5611672;-0.6427882;2.266044;-0.66157;2.239447;
637953122759813767;643.6285;39;1;2;0.6;1.8;2799;0.714540907466952;-0.3078177;0.6542765;-0.281237;0.7275337;0;2.4;0.03439495;2.411992;
637953122777807812;645.4278;39;1;2;0.6;1.8;1799;1.11172873818788;0.5785087;2.18944;0.5103867;2.209436;-0.3078177;0.6542765;-0.281237;0.7275337;
637953122788800284;646.5273;39;1;2;0.6;1.8;1100;1.81818181818182;-0.7794226;1.05;-0.6254282;1.057215;0.5785087;2.18944;0.5103867;2.209436;
637953122800802982;647.7265;39;1;2;0.6;1.8;1199;1.66805671392827;0.8863269;1.656283;0.8386346;1.781104;-0.7794226;1.05;-0.6254282;1.057215;
637953122812895705;648.937;39;1;2;0.6;1.8;1210;1.65289256198347;-0.8863271;1.656283;-0.7788733;1.578788;0.8863269;1.656283;0.8386346;1.781104;
637953122821897725;649.8366;39;1;2;0.6;1.8;900;2.22222222222222;0.779423;1.05;0.676906;1.091411;-0.8863271;1.656283;-0.7788733;1.578788;
637953122832890195;650.9364;39;1;2;0.6;1.8;1100;1.81818181818182;-0.5785094;2.18944;-0.6102774;2.171739;0.779423;1.05;0.676906;1.091411;
637953122855875369;653.2349;39;1;2;0.6;1.8;2299;0.869943453675511;0.3078185;0.6542768;0.2054447;0.638075;-0.5785094;2.18944;-0.6102774;2.171739;
637953123658195882;733.4651;39;2;3;0.2;1.4;5098;0.588466065123578;-0.2394138;0.8422151;-0.2189366;0.8514214;0;2.2;0.05209097;2.147548;
637953123687300466;736.3751;39;2;3;0.2;1.4;2910;1.03092783505155;0.4499513;2.036231;0.4934628;2.080996;-0.2394138;0.8422151;-0.2189366;0.8514214;
637953123701268594;737.774;39;2;3;0.2;1.4;1399;2.14438884917798;-0.6062176;1.15;-0.5924763;1.088581;0.4499513;2.036231;0.4934628;2.080996;
637953123717262212;739.3735;39;2;3;0.2;1.4;1599;1.87617260787993;0.6893654;1.621554;0.680706;1.588237;-0.6062176;1.15;-0.5924763;1.088581;
637953123733255808;740.9724;39;2;3;0.2;1.4;1599;1.87617260787993;-0.6893655;1.621553;-0.6048123;1.611496;0.6893654;1.621554;0.680706;1.588237;
637953123747358981;742.3832;39;2;3;0.2;1.4;1411;2.12615166548547;0.6062179;1.15;0.5735674;1.143461;-0.6893655;1.621553;-0.6048123;1.611496;
637953123761352125;743.7824;39;2;3;0.2;1.4;1399;2.14438884917798;-0.4499517;2.036231;-0.3894511;1.993231;0.6062179;1.15;0.5735674;1.143461;
637953123774345047;745.0818;39;2;3;0.2;1.4;1299;2.3094688221709;0.2394144;0.8422153;0.2185556;0.8922625;-0.4499517;2.036231;-0.3894511;1.993231;
637953123820325383;749.6798;39;2;2;0.6;1.8;3299;0.606244316459533;-0.3078177;0.6542765;-0.2997141;0.9411714;0;2.4;0.03320792;2.403017;
637953123838319423;751.4789;39;2;2;0.6;1.8;1799;1.11172873818788;0.5785087;2.18944;0.5219407;2.218106;-0.3078177;0.6542765;-0.2997141;0.9411714;
637953123853312800;752.978;39;2;2;0.6;1.8;1499;1.33422281521014;-0.7794226;1.05;-0.6639028;1.208562;0.5785087;2.18944;0.5219407;2.218106;
637953123865305499;754.1778;39;2;2;0.6;1.8;1200;1.66666666666667;0.8863269;1.656283;0.8443775;1.666957;-0.7794226;1.05;-0.6639028;1.208562;
637953123876297969;755.2772;39;2;2;0.6;1.8;1099;1.81983621474067;-0.8863271;1.656283;-0.7688742;1.688473;0.8863269;1.656283;0.8443775;1.666957;
637953123888410693;756.4875;39;2;2;0.6;1.8;1210;1.65289256198347;0.779423;1.05;0.6688552;1.13372;-0.8863271;1.656283;-0.7688742;1.688473;
637953123900403389;757.687;39;2;2;0.6;1.8;1200;1.66666666666667;-0.5785094;2.18944;-0.5353699;2.209764;0.779423;1.05;0.6688552;1.13372;
637953123914446545;759.0919;39;2;2;0.6;1.8;1405;1.42348754448399;0.3078185;0.6542768;0.1656939;0.7948339;-0.5785094;2.18944;-0.5353699;2.209764;
637953123955375749;763.1846;39;2;4.5;0.1;2.2;2199;2.04638472032742;-0.3762217;0.4663379;-0.3619675;0.5018126;0;2.6;0.02693443;2.559753;
637953123973479816;764.995;39;2;4.5;0.1;2.2;1810;2.48618784530387;0.7070663;2.342649;0.6647652;2.328412;-0.3762217;0.4663379;-0.3619675;0.5018126;
637953123992469820;766.8942;39;2;4.5;0.1;2.2;1899;2.3696682464455;-0.9526277;0.9499994;-0.9693077;0.9953593;0.7070663;2.342649;0.6647652;2.328412;
637953124031457234;770.7922;39;2;4.5;0.1;2.2;3898;1.15443817342227;1.083289;1.691013;1.108983;1.681074;-0.9526277;0.9499994;-0.9693077;0.9953593;
637953124051438025;772.7911;39;2;4.5;0.1;2.2;1999;2.25112556278139;-1.083289;1.691012;-1.086595;1.696287;1.083289;1.691013;1.108983;1.681074;
637953124067431621;774.3905;39;2;4.5;0.1;2.2;1599;2.81425891181989;0.9526281;0.9500003;0.9339756;0.9474169;-1.083289;1.691012;-1.086595;1.696287;
637953124089426565;776.5894;39;2;4.5;0.1;2.2;2199;2.04638472032742;-0.7070671;2.342648;-0.6695611;2.340462;0.9526281;0.9500003;0.9339756;0.9474169;
637953124134516704;781.0984;39;2;4.5;0.1;2.2;4509;0.998003992015968;0.3762226;0.4663382;0.3769536;0.4853792;-0.7070671;2.342648;-0.6695611;2.340462;
637953124168554356;784.5023;39;2;3.5;0.2;2;2004;1.74650698602794;-0.3420197;0.5603072;-0.3476218;0.6186832;0;2.5;-0.01641261;2.435357;
637953124190489288;786.6959;39;2;3.5;0.2;2;2194;1.59525979945305;0.6427875;2.266045;0.601839;2.26024;-0.3420197;0.5603072;-0.3476218;0.6186832;
637953124214474681;789.095;39;2;3.5;0.2;2;2399;1.45894122551063;-0.8660251;0.9999995;-0.7810814;1.048854;0.6427875;2.266045;0.601839;2.26024;
637953124235529416;791.1991;39;2;3.5;0.2;2;2104;1.66349809885932;0.9848077;1.673648;0.8998043;1.695455;-0.8660251;0.9999995;-0.7810814;1.048854;
637953124256464122;793.293;39;2;3.5;0.2;2;2094;1.67144221585482;-0.9848078;1.673648;-0.923302;1.69717;0.9848077;1.673648;0.8998043;1.695455;
637953124273567969;795.0035;39;2;3.5;0.2;2;1711;2.04558737580362;0.8660256;1;0.8425967;1.085392;-0.9848078;1.673648;-0.923302;1.69717;
637953124295552908;797.2021;39;2;3.5;0.2;2;2199;1.59163256025466;-0.6427882;2.266044;-0.5909522;2.338349;0.8660256;1;0.8425967;1.085392;
637953124321538752;799.8011;39;2;3.5;0.2;2;2599;1.34667179684494;0.3420205;0.5603075;0.3467172;0.6204172;-0.6427882;2.266044;-0.5909522;2.338349;
637953124356533737;803.2997;39;2;2.5;0.3;1.4;1195;2.09205020920502;-0.2394138;0.8422151;-0.1818697;0.9002326;0;2.2;-0.02466548;2.207447;
637953124377523323;805.399;39;2;2.5;0.3;1.4;2099;1.19104335397808;0.4499513;2.036231;0.4736696;2.069327;-0.2394138;0.8422151;-0.1818697;0.9002326;
637953124393506917;806.9979;39;2;2.5;0.3;1.4;1599;1.56347717323327;-0.6062176;1.15;-0.5658213;1.19816;0.4499513;2.036231;0.4736696;2.069327;
637953124409551331;808.6024;39;2;2.5;0.3;1.4;1604;1.55860349127182;0.6893654;1.621554;0.6412886;1.562014;-0.6062176;1.15;-0.5658213;1.19816;
637953124420658203;809.7126;39;2;2.5;0.3;1.4;1110;2.25225225225225;-0.6893655;1.621553;-0.5874562;1.615592;0.6893654;1.621554;0.6412886;1.562014;
637953124437602013;811.4069;39;2;2.5;0.3;1.4;1694;1.47579693034238;0.6062179;1.15;0.531347;1.185786;-0.6893655;1.621553;-0.5874562;1.615592;
637953124452645395;812.9114;39;2;2.5;0.3;1.4;1505;1.66112956810631;-0.4499517;2.036231;-0.3942927;2.014282;0.6062179;1.15;0.531347;1.185786;
637953124466578526;814.3054;39;2;2.5;0.3;1.4;1394;1.79340028694405;0.2394144;0.8422153;0.1344735;0.920527;-0.4499517;2.036231;-0.3942927;2.014282;
637953124495575047;817.2045;39;2;1.5;1.1;2;1400;1.07142857142857;-0.3420197;0.5603072;-0.2688363;0.8932462;0;2.5;-0.008974491;2.475996;
637953124508627988;818.5094;39;2;1.5;1.1;2;1305;1.14942528735632;0.6427875;2.266045;0.5419923;2.54594;-0.3420197;0.5603072;-0.2688363;0.8932462;
637953124526562015;820.303;39;2;1.5;1.1;2;1794;0.836120401337793;-0.8660251;0.9999995;-0.6516728;1.151332;0.6427875;2.266045;0.5419923;2.54594;
637953124539554936;821.6023;39;2;1.5;1.1;2;1299;1.15473441108545;0.9848077;1.673648;0.8485265;1.920858;-0.8660251;0.9999995;-0.6516728;1.151332;
637953124550547405;822.7019;39;2;1.5;1.1;2;1100;1.36363636363636;-0.9848078;1.673648;-0.7811131;1.671697;0.9848077;1.673648;0.8485265;1.920858;
637953124564540553;824.1013;39;2;1.5;1.1;2;1399;1.07219442458899;0.8660256;1;0.6402053;1.114356;-0.9848078;1.673648;-0.7811131;1.671697;
637953124575643048;825.2115;39;2;1.5;1.1;2;1110;1.35135135135135;-0.6427882;2.266044;-0.8773008;2.420023;0.8660256;1;0.6402053;1.114356;
637953124594637320;827.1109;39;2;1.5;1.1;2;1899;0.789889415481833;0.3420205;0.5603075;0.2171909;0.9406954;-0.6427882;2.266044;-0.8773008;2.420023;
637953124669654186;834.6122;39;2;4;0.1;1.4;5502;0.727008360596147;-0.2394138;0.8422151;-0.2227069;0.8256669;0;2.2;-0.009136335;2.196561;
637953124699585884;837.6057;39;2;4;0.1;1.4;2994;1.33600534402138;0.4499513;2.036231;0.4216439;2.054815;-0.2394138;0.8422151;-0.2227069;0.8256669;
637953124718578573;839.505;39;2;4;0.1;1.4;1899;2.10637177461822;-0.6062176;1.15;-0.562145;1.152876;0.4499513;2.036231;0.4216439;2.054815;
637953124744735902;842.1201;39;2;4;0.1;1.4;2615;1.52963671128107;0.6893654;1.621554;0.655714;1.656806;-0.6062176;1.15;-0.562145;1.152876;
637953124771674492;844.8142;39;2;4;0.1;1.4;2694;1.48478099480327;-0.6893655;1.621553;-0.7058536;1.626285;0.6893654;1.621554;0.655714;1.656806;
637953124791658988;846.8127;39;2;4;0.1;1.4;1999;2.00100050025012;0.6062179;1.15;0.574055;1.174084;-0.6893655;1.621553;-0.7058536;1.626285;
637953124808702820;848.5171;39;2;4;0.1;1.4;1704;2.34741784037559;-0.4499517;2.036231;-0.4541465;2.031331;0.6062179;1.15;0.574055;1.174084;
637953124821645730;849.8112;39;2;4;0.1;1.4;1294;3.09119010819165;0.2394144;0.8422153;0.236839;0.8827176;-0.4499517;2.036231;-0.4541465;2.031331;
637953126114164172;979.0634;39;3;3.5;0.2;2;2699;1.29677658391997;-0.3420197;0.5603072;-0.3917983;0.5802763;0;2.5;-0.03018704;2.471309;
637953126131268015;980.7736;39;3;3.5;0.2;2;1710;2.04678362573099;0.6427875;2.266045;0.5907158;2.190958;-0.3420197;0.5603072;-0.3917983;0.5802763;
637953126165250792;984.1719;39;3;3.5;0.2;2;3398;1.03001765744556;-0.8660251;0.9999995;-0.8545325;0.9897552;0.6427875;2.266045;0.5907158;2.190958;
637953126183234839;985.9709;39;3;3.5;0.2;2;1799;1.94552529182879;0.9848077;1.673648;0.9506493;1.706214;-0.8660251;0.9999995;-0.8545325;0.9897552;
637953126217228336;989.3697;39;3;3.5;0.2;2;3399;1.02971462194763;-0.9848078;1.673648;-0.9313975;1.68039;0.9848077;1.673648;0.9506493;1.706214;
637953126233325721;990.9799;39;3;3.5;0.2;2;1610;2.17391304347826;0.8660256;1;0.8781024;1.061136;-0.9848078;1.673648;-0.9313975;1.68039;
637953126254322985;993.0788;39;3;3.5;0.2;2;2099;1.66746069556932;-0.6427882;2.266044;-0.6928464;2.234077;0.8660256;1;0.8781024;1.061136;
637953126274310924;995.0781;39;3;3.5;0.2;2;1999;1.75087543771886;0.3420205;0.5603075;0.3419406;0.6292986;-0.6427882;2.266044;-0.6928464;2.234077;
637953126319291039;999.5759;39;3;3;0.2;1.4;2299;1.30491518051327;-0.2394138;0.8422151;-0.3071162;0.8900846;0;2.2;-0.01928116;2.174989;
637953126339285533;1001.575;39;3;3;0.2;1.4;1999;1.50075037518759;0.4499513;2.036231;0.488796;1.992837;-0.2394138;0.8422151;-0.3071162;0.8900846;
637953126356269355;1003.274;39;3;3;0.2;1.4;1699;1.76574455562095;-0.6062176;1.15;-0.578717;1.121279;0.4499513;2.036231;0.488796;1.992837;
637953126366271598;1004.274;39;3;3;0.2;1.4;999;3.003003003003;0.6893654;1.621554;0.706735;1.60007;-0.6062176;1.15;-0.578717;1.121279;
637953126377264071;1005.373;39;3;3;0.2;1.4;1100;2.72727272727273;-0.6893655;1.621553;-0.6454906;1.616502;0.6893654;1.621554;0.706735;1.60007;
637953126387366341;1006.384;39;3;3;0.2;1.4;1011;2.9673590504451;0.6062179;1.15;0.5383444;1.12843;-0.6893655;1.621553;-0.6454906;1.616502;
637953126408361064;1008.483;39;3;3;0.2;1.4;2099;1.4292520247737;-0.4499517;2.036231;-0.4385839;1.989063;0.6062179;1.15;0.5383444;1.12843;
637953126440348255;1011.682;39;3;3;0.2;1.4;3199;0.937793060331354;0.2394144;0.8422153;0.2349126;0.8386662;-0.4499517;2.036231;-0.4385839;1.989063;
637953126464333649;1014.08;39;3;1.5;1.1;2;1199;1.25104253544621;-0.3420197;0.5603072;-0.1933887;0.8523387;0;2.5;0.0243751;2.440657;
637953126476326346;1015.28;39;3;1.5;1.1;2;1200;1.25;0.6427875;2.266045;0.5497562;2.449787;-0.3420197;0.5603072;-0.1933887;0.8523387;
637953126490319489;1016.679;39;3;1.5;1.1;2;1399;1.07219442458899;-0.8660251;0.9999995;-0.7615879;1.186232;0.6427875;2.266045;0.5497562;2.449787;
637953126501321962;1017.779;39;3;1.5;1.1;2;1100;1.36363636363636;0.9848077;1.673648;0.8194597;1.514422;-0.8660251;0.9999995;-0.7615879;1.186232;
637953126511314211;1018.778;39;3;1.5;1.1;2;999;1.5015015015015;-0.9848078;1.673648;-0.8398749;1.703487;0.9848077;1.673648;0.8194597;1.514422;
637953126519316011;1019.578;39;3;1.5;1.1;2;800;1.875;0.8660256;1;0.6406474;1.14836;-0.9848078;1.673648;-0.8398749;1.703487;
637953126536299829;1021.277;39;3;1.5;1.1;2;1699;0.882872277810477;-0.6427882;2.266044;-0.3474513;2.229641;0.8660256;1;0.6406474;1.14836;
637953126555404985;1023.187;39;3;1.5;1.1;2;1910;0.785340314136126;0.3420205;0.5603075;0.1391784;0.8853168;-0.6427882;2.266044;-0.3474513;2.229641;
637953126600384684;1027.685;39;3;4;0.1;1.4;2399;1.66736140058358;-0.2394138;0.8422151;-0.2463113;0.8689734;0;2.2;0.01072369;2.191525;
637953126632366582;1030.884;39;3;4;0.1;1.4;3198;1.25078173858662;0.4499513;2.036231;0.436525;2.036237;-0.2394138;0.8422151;-0.2463113;0.8689734;
637953126684348269;1036.082;39;3;4;0.1;1.4;5198;0.769526741054252;-0.6062176;1.15;-0.6255575;1.162665;0.4499513;2.036231;0.436525;2.036237;
637953126704462792;1038.093;39;3;4;0.1;1.4;2011;1.98906016907011;0.6893654;1.621554;0.698378;1.62832;-0.6062176;1.15;-0.6255575;1.162665;
637953126746432226;1042.29;39;3;4;0.1;1.4;4197;0.953061710745771;-0.6893655;1.621553;-0.6750503;1.57788;0.6893654;1.621554;0.698378;1.62832;
637953126767697007;1044.424;39;3;4;0.1;1.4;2134;1.87441424554827;0.6062179;1.15;0.5564343;1.146201;-0.6893655;1.621553;-0.6750503;1.57788;
637953126804405260;1048.087;39;3;4;0.1;1.4;3663;1.09200109200109;-0.4499517;2.036231;-0.4437231;2.05482;0.6062179;1.15;0.5564343;1.146201;
637953126841383577;1051.785;39;3;4;0.1;1.4;3698;1.08166576527853;0.2394144;0.8422153;0.2178081;0.8434389;-0.4499517;2.036231;-0.4437231;2.05482;
637953126886473713;1056.294;39;3;4.5;0.1;2.2;2499;1.80072028811525;-0.3762217;0.4663379;-0.3780244;0.510887;0;2.6;0.01162414;2.570765;
637953126909461857;1058.593;39;3;4.5;0.1;2.2;2299;1.9573727707699;0.7070663;2.342649;0.6794877;2.325724;-0.3762217;0.4663379;-0.3780244;0.510887;
637953126935447701;1061.192;39;3;4.5;0.1;2.2;2599;1.73143516737207;-0.9526277;0.9499994;-0.9446224;0.9862712;0.7070663;2.342649;0.6794877;2.325724;
637953126951441294;1062.792;39;3;4.5;0.1;2.2;1600;2.8125;1.083289;1.691013;1.033564;1.692525;-0.9526277;0.9499994;-0.9446224;0.9862712;
637953126979431028;1065.59;39;3;4.5;0.1;2.2;2799;1.60771704180064;-1.083289;1.691012;-1.060725;1.679994;1.083289;1.691013;1.033564;1.692525;
637953126996544872;1067.301;39;3;4.5;0.1;2.2;1710;2.63157894736842;0.9526281;0.9500003;0.9285468;0.9523835;-1.083289;1.691012;-1.060725;1.679994;
637953127047526338;1072.399;39;3;4.5;0.1;2.2;5099;0.882525985487351;-0.7070671;2.342648;-0.6716934;2.364252;0.9526281;0.9500003;0.9285468;0.9523835;
637953127067510830;1074.398;39;3;4.5;0.1;2.2;1998;2.25225225225225;0.3762226;0.4663382;0.4036556;0.4778297;-0.7070671;2.342648;-0.6716934;2.364252;
637953127101598492;1077.807;39;3;2;0.6;1.8;2099;0.952834683182468;-0.3078177;0.6542765;-0.2637038;0.8553997;0;2.4;-0.09326435;2.649825;
637953127113591194;1079.006;39;3;2;0.6;1.8;1199;1.66805671392827;0.5785087;2.18944;0.4648285;2.216764;-0.3078177;0.6542765;-0.2637038;0.8553997;
637953127135586136;1081.205;39;3;2;0.6;1.8;2199;0.909504320145521;-0.7794226;1.05;-0.7719213;1.163846;0.5785087;2.18944;0.4648285;2.216764;
637953127149579283;1082.605;39;3;2;0.6;1.8;1400;1.42857142857143;0.8863269;1.656283;0.6705385;1.772953;-0.7794226;1.05;-0.7719213;1.163846;
637953127164572651;1084.104;39;3;2;0.6;1.8;1499;1.33422281521014;-0.8863271;1.656283;-0.7672657;1.800137;0.8863269;1.656283;0.6705385;1.772953;
637953127175565125;1085.203;39;3;2;0.6;1.8;1099;1.81983621474067;0.779423;1.05;0.703589;1.035643;-0.8863271;1.656283;-0.7672657;1.800137;
637953127215544113;1089.201;39;3;2;0.6;1.8;3998;0.500250125062531;-0.5785094;2.18944;-0.5167432;2.116384;0.779423;1.05;0.703589;1.035643;
637953127226536584;1090.301;39;3;2;0.6;1.8;1099;1.81983621474067;0.3078185;0.6542768;0.1696991;0.557228;-0.5785094;2.18944;-0.5167432;2.116384;
637953127250642005;1092.711;39;3;2.5;0.3;1.4;1375;1.81818181818182;-0.2394138;0.8422151;-0.2462429;0.8213409;0;2.2;-0.06343734;2.326508;
637953127264635150;1094.11;39;3;2.5;0.3;1.4;1399;1.78699070764832;0.4499513;2.036231;0.3951762;1.972652;-0.2394138;0.8422151;-0.2462429;0.8213409;
637953127279629990;1095.61;39;3;2.5;0.3;1.4;1499;1.66777851901268;-0.6062176;1.15;-0.579726;1.24901;0.4499513;2.036231;0.3951762;1.972652;
637953127306615832;1098.308;39;3;2.5;0.3;1.4;2699;0.926268988514265;0.6893654;1.621554;0.6182502;1.55094;-0.6062176;1.15;-0.579726;1.24901;
637953127318608528;1099.508;39;3;2.5;0.3;1.4;1199;2.08507089241034;-0.6893655;1.621553;-0.6501015;1.573241;0.6893654;1.621554;0.6182502;1.55094;
637953127333600509;1101.007;39;3;2.5;0.3;1.4;1499;1.66777851901268;0.6062179;1.15;0.5999278;1.122266;-0.6893655;1.621553;-0.6501015;1.573241;
637953127345593208;1102.207;39;3;2.5;0.3;1.4;1199;2.08507089241034;-0.4499517;2.036231;-0.4013094;1.984412;0.6062179;1.15;0.5999278;1.122266;
637953127374579726;1105.105;39;3;2.5;0.3;1.4;2899;0.862366333218351;0.2394144;0.8422153;0.1694221;0.7592834;-0.4499517;2.036231;-0.4013094;1.984412;
637953128770168579;1244.664;39;4;2;0.6;1.8;1399;1.42959256611866;-0.3078177;0.6542765;-0.258806;0.9153173;0;2.4;0.06237528;2.500769;
637953128781161071;1245.763;39;4;2;0.6;1.8;1099;1.81983621474067;0.5785087;2.18944;0.4180535;2.218061;-0.3078177;0.6542765;-0.258806;0.9153173;
637953128793153769;1246.963;39;4;2;0.6;1.8;1200;1.66666666666667;-0.7794226;1.05;-0.7444322;1.202188;0.5785087;2.18944;0.4180535;2.218061;
637953128807146914;1248.362;39;4;2;0.6;1.8;1399;1.42959256611866;0.8863269;1.656283;0.7594435;1.712087;-0.7794226;1.05;-0.7444322;1.202188;
637953128826141188;1250.261;39;4;2;0.6;1.8;1899;1.05318588730911;-0.8863271;1.656283;-0.6800877;1.744198;0.8863269;1.656283;0.7594435;1.712087;
637953128841244578;1251.771;39;4;2;0.6;1.8;1511;1.32362673726009;0.779423;1.05;0.5773245;1.148655;-0.8863271;1.656283;-0.6800877;1.744198;
637953128856237954;1253.271;39;4;2;0.6;1.8;1499;1.33422281521014;-0.5785094;2.18944;-0.5862741;2.189908;0.779423;1.05;0.5773245;1.148655;
637953128869230872;1254.57;39;4;2;0.6;1.8;1299;1.53964588144727;0.3078185;0.6542768;0.2365617;0.7264247;-0.5785094;2.18944;-0.5862741;2.189908;
637953128931314828;1260.778;39;4;3;0.2;1.4;4509;0.665335994677312;-0.2394138;0.8422151;-0.2455555;0.8473042;0;2.2;0.02254758;2.273896;
637953128944307754;1262.078;39;4;3;0.2;1.4;1299;2.3094688221709;0.4499513;2.036231;0.4403839;2.072075;-0.2394138;0.8422151;-0.2455555;0.8473042;
637953128957300678;1263.377;39;4;3;0.2;1.4;1299;2.3094688221709;-0.6062176;1.15;-0.5817952;1.200081;0.4499513;2.036231;0.4403839;2.072075;
637953128970643677;1264.719;39;4;3;0.2;1.4;1342;2.2354694485842;0.6893654;1.621554;0.7784399;1.651468;-0.6062176;1.15;-0.5817952;1.200081;
637953129003281011;1267.975;39;4;3;0.2;1.4;3256;0.921375921375921;-0.6893655;1.621553;-0.7080601;1.632332;0.6893654;1.621554;0.7784399;1.651468;
637953129017274161;1269.374;39;4;3;0.2;1.4;1400;2.14285714285714;0.6062179;1.15;0.5726475;1.188149;-0.6893655;1.621553;-0.7080601;1.632332;
637953129034267979;1271.074;39;4;3;0.2;1.4;1699;1.76574455562095;-0.4499517;2.036231;-0.4148438;1.992975;0.6062179;1.15;0.5726475;1.188149;
637953129053262252;1272.973;39;4;3;0.2;1.4;1899;1.57977883096367;0.2394144;0.8422153;0.1989273;0.8964934;-0.4499517;2.036231;-0.4148438;1.992975;
637953129090352741;1276.682;39;4;1.5;1.1;2;2299;0.652457590256633;-0.3420197;0.5603072;-0.1469926;0.9203999;0;2.5;-0.05385562;2.428216;
637953129099344764;1277.581;39;4;1.5;1.1;2;899;1.66852057842047;0.6427875;2.266045;0.4020184;2.216522;-0.3420197;0.5603072;-0.1469926;0.9203999;
637953129108336785;1278.481;39;4;1.5;1.1;2;900;1.66666666666667;-0.8660251;0.9999995;-0.8018412;1.293541;0.6427875;2.266045;0.4020184;2.216522;
637953129117330540;1279.381;39;4;1.5;1.1;2;900;1.66666666666667;0.9848077;1.673648;0.8862112;1.542347;-0.8660251;0.9999995;-0.8018412;1.293541;
637953129124335610;1280.08;39;4;1.5;1.1;2;700;2.14285714285714;-0.9848078;1.673648;-0.8450847;1.593471;0.9848077;1.673648;0.8862112;1.542347;
637953129133329515;1280.98;39;4;1.5;1.1;2;900;1.66666666666667;0.8660256;1;0.7066175;1.203142;-0.9848078;1.673648;-0.8450847;1.593471;
637953129141331314;1281.78;39;4;1.5;1.1;2;800;1.875;-0.6427882;2.266044;-0.5836638;2.035793;0.8660256;1;0.7066175;1.203142;
637953129149323111;1282.58;39;4;1.5;1.1;2;800;1.875;0.3420205;0.5603075;0.2151462;0.8411306;-0.6427882;2.266044;-0.5836638;2.035793;
637953129190412347;1286.688;39;4;4;0.1;1.4;1909;2.09533787323206;-0.2394138;0.8422151;-0.2224604;0.8809248;0;2.2;0.01639939;2.16246;
637953129208406386;1288.488;39;4;4;0.1;1.4;1799;2.22345747637576;0.4499513;2.036231;0.4611017;2.04376;-0.2394138;0.8422151;-0.2224604;0.8809248;
637953129238393138;1291.486;39;4;4;0.1;1.4;2998;1.33422281521014;-0.6062176;1.15;-0.5910656;1.144234;0.4499513;2.036231;0.4611017;2.04376;
637953129267379654;1294.385;39;4;4;0.1;1.4;2899;1.37978613314936;0.6893654;1.621554;0.6546798;1.638898;-0.6062176;1.15;-0.5910656;1.144234;
637953129291475069;1296.795;39;4;4;0.1;1.4;2410;1.6597510373444;-0.6893655;1.621553;-0.6633179;1.616626;0.6893654;1.621554;0.6546798;1.638898;
637953129303477770;1297.995;39;4;4;0.1;1.4;1200;3.33333333333333;0.6062179;1.15;0.5751266;1.173545;-0.6893655;1.621553;-0.6633179;1.616626;
637953129321471816;1299.794;39;4;4;0.1;1.4;1799;2.22345747637576;-0.4499517;2.036231;-0.4633831;2.040839;0.6062179;1.15;0.5751266;1.173545;
637953129359560378;1303.603;39;4;4;0.1;1.4;3810;1.0498687664042;0.2394144;0.8422153;0.2514632;0.8539419;-0.4499517;2.036231;-0.4633831;2.040839;
637953129406530938;1308.301;39;4;3.5;0.2;2;2799;1.25044658806717;-0.3420197;0.5603072;-0.2925474;0.5725594;0;2.5;0.01601725;2.471893;
637953129424530037;1310.1;39;4;3.5;0.2;2;1799;1.94552529182879;0.6427875;2.266045;0.6074085;2.225488;-0.3420197;0.5603072;-0.2925474;0.5725594;
637953129442516963;1311.899;39;4;3.5;0.2;2;1799;1.94552529182879;-0.8660251;0.9999995;-0.8055264;0.9935745;0.6427875;2.266045;0.6074085;2.225488;
637953129458510560;1313.498;39;4;3.5;0.2;2;1599;2.18886804252658;0.9848077;1.673648;0.90333;1.664087;-0.8660251;0.9999995;-0.8055264;0.9935745;
637953129487505119;1316.397;39;4;3.5;0.2;2;2899;1.20731286650569;-0.9848078;1.673648;-0.9831886;1.662986;0.9848077;1.673648;0.90333;1.664087;
637953129509604181;1318.607;39;4;3.5;0.2;2;2210;1.58371040723982;0.8660256;1;0.8076688;1.043617;-0.9848078;1.673648;-0.9831886;1.662986;
637953129524595835;1320.107;39;4;3.5;0.2;2;1499;2.33488992661775;-0.6427882;2.266044;-0.613479;2.212707;0.8660256;1;0.8076688;1.043617;
637953129537587068;1321.406;39;4;3.5;0.2;2;1299;2.69438029253272;0.3420205;0.5603075;0.3143646;0.5186367;-0.6427882;2.266044;-0.613479;2.212707;
637953129603674583;1328.014;39;4;4.5;0.1;2.2;4309;1.04432582965885;-0.3762217;0.4663379;-0.3878641;0.4808737;0;2.6;-0.03887255;2.587467;
637953129623659074;1330.013;39;4;4.5;0.1;2.2;1999;2.25112556278139;0.7070663;2.342649;0.713264;2.296995;-0.3762217;0.4663379;-0.3878641;0.4808737;
637953129644653796;1332.112;39;4;4.5;0.1;2.2;2099;2.14387803716055;-0.9526277;0.9499994;-0.9403521;0.9497956;0.7070663;2.342649;0.713264;2.296995;
637953129665638517;1334.211;39;4;4.5;0.1;2.2;2099;2.14387803716055;1.083289;1.691013;1.051091;1.697395;-0.9526277;0.9499994;-0.9403521;0.9497956;
637953129703627057;1338.009;39;4;4.5;0.1;2.2;3798;1.18483412322275;-1.083289;1.691012;-1.068572;1.692518;1.083289;1.691013;1.051091;1.697395;
637953129722731349;1339.92;39;4;4.5;0.1;2.2;1911;2.35478806907378;0.9526281;0.9500003;0.9386634;0.9563602;-1.083289;1.691012;-1.068572;1.692518;
637953129752708093;1342.918;39;4;4.5;0.1;2.2;2998;1.50100066711141;-0.7070671;2.342648;-0.7035221;2.326881;0.9526281;0.9500003;0.9386634;0.9563602;
637953129773702811;1345.017;39;4;4.5;0.1;2.2;2099;2.14387803716055;0.3762226;0.4663382;0.3571034;0.4926016;-0.7070671;2.342648;-0.7035221;2.326881;
637953129802689328;1347.916;39;4;2.5;0.3;1.4;1300;1.92307692307692;-0.2394138;0.8422151;-0.1728654;0.8852004;0;2.2;-0.03678983;2.283669;
637953129829035252;1350.557;39;4;2.5;0.3;1.4;2642;0.946252838758516;0.4499513;2.036231;0.3586327;1.917719;-0.2394138;0.8422151;-0.1728654;0.8852004;
637953129847669440;1352.414;39;4;2.5;0.3;1.4;1856;1.34698275862069;-0.6062176;1.15;-0.5425934;1.169908;0.4499513;2.036231;0.3586327;1.917719;
637953129880766882;1355.723;39;4;2.5;0.3;1.4;3310;0.755287009063444;0.6893654;1.621554;0.6247759;1.592683;-0.6062176;1.15;-0.5425934;1.169908;
637953129893766539;1357.023;39;4;2.5;0.3;1.4;1300;1.92307692307692;-0.6893655;1.621553;-0.6149198;1.687884;0.6893654;1.621554;0.6247759;1.592683;
637953129908839922;1358.522;39;4;2.5;0.3;1.4;1499;1.66777851901268;0.6062179;1.15;0.5974693;1.149599;-0.6893655;1.621553;-0.6149198;1.687884;
637953129936733866;1361.321;39;4;2.5;0.3;1.4;2799;0.893176134333691;-0.4499517;2.036231;-0.4128838;2.027669;0.6062179;1.15;0.5974693;1.149599;
637953129949736796;1362.62;39;4;2.5;0.3;1.4;1299;1.92455735180908;0.2394144;0.8422153;0.2228951;0.7825673;-0.4499517;2.036231;-0.4128838;2.027669;
637953130741150788;1441.762;39;5;2;0.6;1.8;3094;0.646412411118294;-0.3078177;0.6542765;-0.2457504;0.741513;0;2.4;-0.01442875;2.275486;
637953130753193490;1442.966;39;5;2;0.6;1.8;1204;1.66112956810631;0.5785087;2.18944;0.6271015;2.150549;-0.3078177;0.6542765;-0.2457504;0.741513;
637953130767136630;1444.361;39;5;2;0.6;1.8;1395;1.4336917562724;-0.7794226;1.05;-0.7540689;1.190785;0.5785087;2.18944;0.6271015;2.150549;
637953130777128872;1445.36;39;5;2;0.6;1.8;999;2.002002002002;0.8863269;1.656283;0.918632;1.619839;-0.7794226;1.05;-0.7540689;1.190785;
637953130789121569;1446.559;39;5;2;0.6;1.8;1199;1.66805671392827;-0.8863271;1.656283;-0.756027;1.65759;0.8863269;1.656283;0.918632;1.619839;
637953130799123819;1447.559;39;5;2;0.6;1.8;1000;2;0.779423;1.05;0.834699;1.12082;-0.8863271;1.656283;-0.756027;1.65759;
637953130811116515;1448.759;39;5;2;0.6;1.8;1199;1.66805671392827;-0.5785094;2.18944;-0.5249561;2.172631;0.779423;1.05;0.834699;1.12082;
637953130821108759;1449.758;39;5;2;0.6;1.8;1000;2;0.3078185;0.6542768;0.3099134;0.8667179;-0.5785094;2.18944;-0.5249561;2.172631;
637953130845094151;1452.157;39;5;1.5;1.1;2;1099;1.36487716105551;-0.3420197;0.5603072;-0.2995717;0.6827748;0;2.5;0.02770947;2.375289;
637953130857206879;1453.367;39;5;1.5;1.1;2;1211;1.23864574731627;0.6427875;2.266045;0.6136462;2.34976;-0.3420197;0.5603072;-0.2995717;0.6827748;
637953130870199800;1454.667;39;5;1.5;1.1;2;1299;1.15473441108545;-0.8660251;0.9999995;-0.7796226;1.204799;0.6427875;2.266045;0.6136462;2.34976;
637953130879201822;1455.567;39;5;1.5;1.1;2;900;1.66666666666667;0.9848077;1.673648;0.840803;1.549128;-0.8660251;0.9999995;-0.7796226;1.204799;
637953130889194071;1456.566;39;5;1.5;1.1;2;999;1.5015015015015;-0.9848078;1.673648;-0.729516;1.620277;0.9848077;1.673648;0.840803;1.549128;
637953130896125628;1457.26;39;5;1.5;1.1;2;694;2.16138328530259;0.8660256;1;0.666617;1.115948;-0.9848078;1.673648;-0.729516;1.620277;
637953130916180135;1459.265;39;5;1.5;1.1;2;2005;0.748129675810474;-0.6427882;2.266044;-0.4597838;2.247571;0.8660256;1;0.666617;1.115948;
637953130926172377;1460.264;39;5;1.5;1.1;2;999;1.5015015015015;0.3420205;0.5603075;0.1619895;0.885644;-0.6427882;2.266044;-0.4597838;2.247571;
637953130968211018;1464.468;39;5;4;0.1;1.4;2504;1.59744408945687;-0.2394138;0.8422151;-0.2466341;0.8181144;0;2.2;-0.028763;2.231682;
637953130996257327;1467.272;39;5;4;0.1;1.4;2805;1.42602495543672;0.4499513;2.036231;0.4469226;2.005542;-0.2394138;0.8422151;-0.2466341;0.8181144;
637953131023239067;1469.971;39;5;4;0.1;1.4;2699;1.48203038162282;-0.6062176;1.15;-0.587047;1.131908;0.4499513;2.036231;0.4469226;2.005542;
637953131049234909;1472.57;39;5;4;0.1;1.4;2599;1.5390534821085;0.6893654;1.621554;0.7043453;1.601855;-0.6062176;1.15;-0.587047;1.131908;
637953131068329204;1474.48;39;5;4;0.1;1.4;1910;2.09424083769634;-0.6893655;1.621553;-0.6891499;1.614955;0.6893654;1.621554;0.7043453;1.601855;
637953131111308868;1478.778;39;5;4;0.1;1.4;4298;0.930665425779432;0.6062179;1.15;0.5812106;1.134142;-0.6893655;1.621553;-0.6891499;1.614955;
637953131136304488;1481.277;39;5;4;0.1;1.4;2499;1.60064025610244;-0.4499517;2.036231;-0.43117;2.033434;0.6062179;1.15;0.5812106;1.134142;
637953131164340789;1484.081;39;5;4;0.1;1.4;2803;1.42704245451302;0.2394144;0.8422153;0.2217258;0.8414944;-0.4499517;2.036231;-0.43117;2.033434;
637953131197278196;1487.374;39;5;3;0.2;1.4;1395;2.1505376344086;-0.2394138;0.8422151;-0.2263793;0.9158378;0;2.2;0.05992135;2.240497;
637953131211261339;1488.773;39;5;3;0.2;1.4;1399;2.14438884917798;0.4499513;2.036231;0.4066707;1.967663;-0.2394138;0.8422151;-0.2263793;0.9158378;
637953131226264713;1490.273;39;5;3;0.2;1.4;1500;2;-0.6062176;1.15;-0.6260433;1.138386;0.4499513;2.036231;0.4066707;1.967663;
637953131239367661;1491.584;39;5;3;0.2;1.4;1311;2.2883295194508;0.6893654;1.621554;0.7562917;1.638593;-0.6062176;1.15;-0.6260433;1.138386;
637953131251360354;1492.783;39;5;3;0.2;1.4;1199;2.50208507089241;-0.6893655;1.621553;-0.6700521;1.612354;0.6893654;1.621554;0.7562917;1.638593;
637953131279396660;1495.587;39;5;3;0.2;1.4;2804;1.06990014265335;0.6062179;1.15;0.5425129;1.159266;-0.6893655;1.621553;-0.6700521;1.612354;
637953131293339793;1496.981;39;5;3;0.2;1.4;1394;2.15208034433285;-0.4499517;2.036231;-0.4013081;2.011395;0.6062179;1.15;0.5425129;1.159266;
637953131311378775;1498.785;39;5;3;0.2;1.4;1804;1.6629711751663;0.2394144;0.8422153;0.2811295;0.8883096;-0.4499517;2.036231;-0.4013081;2.011395;
637953131339325059;1501.579;39;5;2.5;0.3;1.4;1300;1.92307692307692;-0.2394138;0.8422151;-0.1979768;0.8458256;0;2.2;-0.03196239;2.128732;
637953131356306155;1503.278;39;5;2.5;0.3;1.4;1699;1.47145379635079;0.4499513;2.036231;0.4150392;1.986562;-0.2394138;0.8422151;-0.1979768;0.8458256;
637953131370411796;1504.688;39;5;2.5;0.3;1.4;1411;1.77179305457123;-0.6062176;1.15;-0.6087449;1.140761;0.4499513;2.036231;0.4150392;1.986562;
637953131387407791;1506.388;39;5;2.5;0.3;1.4;1699;1.47145379635079;0.6893654;1.621554;0.6318986;1.612683;-0.6062176;1.15;-0.6087449;1.140761;
637953131401400938;1507.787;39;5;2.5;0.3;1.4;1399;1.78699070764832;-0.6893655;1.621553;-0.6215073;1.597967;0.6893654;1.621554;0.6318986;1.612683;
637953131414393861;1509.087;39;5;2.5;0.3;1.4;1300;1.92307692307692;0.6062179;1.15;0.4991827;1.239636;-0.6893655;1.621553;-0.6215073;1.597967;
637953131434388354;1511.086;39;5;2.5;0.3;1.4;1999;1.25062531265633;-0.4499517;2.036231;-0.4182348;2.034266;0.6062179;1.15;0.4991827;1.239636;
637953131454532887;1513.101;39;5;2.5;0.3;1.4;2015;1.24069478908189;0.2394144;0.8422153;0.1861028;0.8686209;-0.4499517;2.036231;-0.4182348;2.034266;
637953131511465684;1518.793;39;5;4.5;0.1;2.2;2893;1.55547874179053;-0.3762217;0.4663379;-0.3708903;0.4588693;0;2.6;0.01675468;2.571453;
637953131539451975;1521.592;39;5;4.5;0.1;2.2;2798;1.60829163688349;0.7070663;2.342649;0.6583343;2.333588;-0.3762217;0.4663379;-0.3708903;0.4588693;
637953131567488278;1524.396;39;5;4.5;0.1;2.2;2804;1.60485021398003;-0.9526277;0.9499994;-0.9462432;0.9358617;0.7070663;2.342649;0.6583343;2.333588;
637953131585432314;1526.19;39;5;4.5;0.1;2.2;1794;2.50836120401338;1.083289;1.691013;1.042673;1.681641;-0.9526277;0.9499994;-0.9462432;0.9358617;
637953131608417488;1528.489;39;5;4.5;0.1;2.2;2299;1.9573727707699;-1.083289;1.691012;-1.066565;1.673043;1.083289;1.691013;1.042673;1.681641;
637953131636513800;1531.298;39;5;4.5;0.1;2.2;2810;1.60142348754448;0.9526281;0.9500003;0.9221542;0.9565017;-1.083289;1.691012;-1.066565;1.673043;
637953131674607501;1535.108;39;5;4.5;0.1;2.2;3809;1.18141244421108;-0.7070671;2.342648;-0.7059751;2.357443;0.9526281;0.9500003;0.9221542;0.9565017;
637953131697602673;1537.407;39;5;4.5;0.1;2.2;2299;1.9573727707699;0.3762226;0.4663382;0.3626541;0.4745126;-0.7070671;2.342648;-0.7059751;2.357443;
637953131733581748;1541.005;39;5;3.5;0.2;2;1794;1.95094760312152;-0.3420197;0.5603072;-0.330402;0.5674639;0;2.5;0.002264927;2.563128;
637953131754571679;1543.104;39;5;3.5;0.2;2;2099;1.66746069556932;0.6427875;2.266045;0.581889;2.253524;-0.3420197;0.5603072;-0.330402;0.5674639;
637953131773572056;1545.004;39;5;3.5;0.2;2;1899;1.84307530279094;-0.8660251;0.9999995;-0.8353916;1.000791;0.6427875;2.266045;0.581889;2.253524;
637953131801713320;1547.818;39;5;3.5;0.2;2;2815;1.24333925399645;0.9848077;1.673648;0.9295152;1.718885;-0.8660251;0.9999995;-0.8353916;1.000791;
637953131821657805;1549.813;39;5;3.5;0.2;2;1994;1.75526579739218;-0.9848078;1.673648;-0.9532906;1.680517;0.9848077;1.673648;0.9295152;1.718885;
637953131839641846;1551.611;39;5;3.5;0.2;2;1799;1.94552529182879;0.8660256;1;0.8041679;1.055741;-0.9848078;1.673648;-0.9532906;1.680517;
637953131855635444;1553.211;39;5;3.5;0.2;2;1599;2.18886804252658;-0.6427882;2.266044;-0.6438722;2.217321;0.8660256;1;0.8041679;1.055741;
637953131881681298;1555.815;39;5;3.5;0.2;2;2604;1.34408602150538;0.3420205;0.5603075;0.2830658;0.606797;-0.6427882;2.266044;-0.6438722;2.217321;
637953132682038821;1635.851;39;6;4;0.1;1.4;2810;1.42348754448399;-0.2394138;0.8422151;-0.2220149;0.8384984;0;2.2;-0.01256631;2.19202;
637953132703028582;1637.95;39;6;4;0.1;1.4;2099;1.90566936636494;0.4499513;2.036231;0.4053351;2.027907;-0.2394138;0.8422151;-0.2220149;0.8384984;
637953132726023752;1640.249;39;6;4;0.1;1.4;2299;1.73988690735102;-0.6062176;1.15;-0.6133831;1.154328;0.4499513;2.036231;0.4053351;2.027907;
637953132748008693;1642.448;39;6;4;0.1;1.4;2199;1.81900864029104;0.6893654;1.621554;0.6625042;1.581602;-0.6062176;1.15;-0.6133831;1.154328;
637953132773994536;1645.046;39;6;4;0.1;1.4;2599;1.5390534821085;-0.6893655;1.621553;-0.708365;1.623968;0.6893654;1.621554;0.6625042;1.581602;
637953132797984949;1647.445;39;6;4;0.1;1.4;2399;1.66736140058358;0.6062179;1.15;0.5862026;1.157147;-0.6893655;1.621553;-0.708365;1.623968;
637953132848477718;1652.502;39;6;4;0.1;1.4;5057;0.790982796124184;-0.4499517;2.036231;-0.4850087;2.006242;0.6062179;1.15;0.5862026;1.157147;
637953132885107757;1656.158;39;6;4;0.1;1.4;3656;1.09409190371991;0.2394144;0.8422153;0.191597;0.8389663;-0.4499517;2.036231;-0.4850087;2.006242;
637953132921043155;1659.751;39;6;3.5;0.2;2;1699;2.06003531489111;-0.3420197;0.5603072;-0.2851035;0.5781394;0;2.5;-0.02213369;2.444642;
637953132938145325;1661.461;39;6;3.5;0.2;2;1710;2.04678362573099;0.6427875;2.266045;0.6519397;2.27975;-0.3420197;0.5603072;-0.2851035;0.5781394;
637953132958131630;1663.46;39;6;3.5;0.2;2;1999;1.75087543771886;-0.8660251;0.9999995;-0.8492268;1.023782;0.6427875;2.266045;0.6519397;2.27975;
637953132974128806;1665.059;39;6;3.5;0.2;2;1599;2.18886804252658;0.9848077;1.673648;0.9012795;1.688652;-0.8660251;0.9999995;-0.8492268;1.023782;
637953132994114315;1667.058;39;6;3.5;0.2;2;1999;1.75087543771886;-0.9848078;1.673648;-1.048793;1.677722;0.9848077;1.673648;0.9012795;1.688652;
637953133017109486;1669.358;39;6;3.5;0.2;2;2299;1.52240104393214;0.8660256;1;0.9308293;1.025785;-0.9848078;1.673648;-1.048793;1.677722;
637953133038104207;1671.457;39;6;3.5;0.2;2;2099;1.66746069556932;-0.6427882;2.266044;-0.6495346;2.226571;0.8660256;1;0.9308293;1.025785;
637953133056198274;1673.267;39;6;3.5;0.2;2;1810;1.93370165745856;0.3420205;0.5603075;0.2991796;0.6229146;-0.6427882;2.266044;-0.6495346;2.226571;
637953133088185467;1676.465;39;6;2.5;0.3;1.4;1494;1.67336010709505;-0.2394138;0.8422151;-0.1746075;0.9109995;0;2.2;-0.0004499927;2.062453;
637953133109170183;1678.564;39;6;2.5;0.3;1.4;2099;1.19104335397808;0.4499513;2.036231;0.4275834;2.079027;-0.2394138;0.8422151;-0.1746075;0.9109995;
637953133127164227;1680.364;39;6;2.5;0.3;1.4;1799;1.38966092273485;-0.6062176;1.15;-0.5747782;1.14396;0.4499513;2.036231;0.4275834;2.079027;
637953133154150294;1683.062;39;6;2.5;0.3;1.4;2699;0.926268988514265;0.6893654;1.621554;0.618116;1.638343;-0.6062176;1.15;-0.5747782;1.14396;
637953133166152995;1684.262;39;6;2.5;0.3;1.4;1200;2.08333333333333;-0.6893655;1.621553;-0.6239919;1.577249;0.6893654;1.621554;0.618116;1.638343;
637953133179255938;1685.573;39;6;2.5;0.3;1.4;1311;1.906941266209;0.6062179;1.15;0.5778416;1.197964;-0.6893655;1.621553;-0.6239919;1.577249;
637953133192138840;1686.861;39;6;2.5;0.3;1.4;1288;1.94099378881988;-0.4499517;2.036231;-0.4155914;1.985784;0.6062179;1.15;0.5778416;1.197964;
637953133209132662;1688.56;39;6;2.5;0.3;1.4;1699;1.47145379635079;0.2394144;0.8422153;0.2066155;0.8412256;-0.4499517;2.036231;-0.4155914;1.985784;
637953133257213466;1693.369;39;6;4.5;0.1;2.2;3168;1.42045454545455;-0.3762217;0.4663379;-0.3919234;0.5122523;0;2.6;-0.01738802;2.555429;
637953133279208414;1695.568;39;6;4.5;0.1;2.2;2200;2.04545454545455;0.7070663;2.342649;0.7090355;2.317271;-0.3762217;0.4663379;-0.3919234;0.5122523;
637953133305200176;1698.167;39;6;4.5;0.1;2.2;2599;1.73143516737207;-0.9526277;0.9499994;-0.9472645;0.9475622;0.7070663;2.342649;0.7090355;2.317271;
637953133332296269;1700.876;39;6;4.5;0.1;2.2;2710;1.66051660516605;1.083289;1.691013;1.052482;1.682727;-0.9526277;0.9499994;-0.9472645;0.9475622;
637953133348289887;1702.476;39;6;4.5;0.1;2.2;1599;2.81425891181989;-1.083289;1.691012;-1.07349;1.66771;1.083289;1.691013;1.052482;1.682727;
637953133365335983;1704.18;39;6;4.5;0.1;2.2;1704;2.64084507042254;0.9526281;0.9500003;0.9472942;0.9765771;-1.083289;1.691012;-1.07349;1.66771;
637953133390266342;1706.674;39;6;4.5;0.1;2.2;2494;1.80433039294306;-0.7070671;2.342648;-0.7498868;2.336606;0.9526281;0.9500003;0.9472942;0.9765771;
637953133415251986;1709.173;39;6;4.5;0.1;2.2;2499;1.80072028811525;0.3762226;0.4663382;0.3575435;0.5124476;-0.7070671;2.342648;-0.7498868;2.336606;
637953133436256709;1711.272;39;6;1.5;1.1;2;895;1.67597765363128;-0.3420197;0.5603072;-0.2666696;0.9026307;0;2.5;-0.00542031;2.818251;
637953133447239177;1712.371;39;6;1.5;1.1;2;1099;1.36487716105551;0.6427875;2.266045;0.3197996;2.197261;-0.3420197;0.5603072;-0.2666696;0.9026307;
637953133455351002;1713.182;39;6;1.5;1.1;2;811;1.84956843403206;-0.8660251;0.9999995;-0.5915858;1.116807;0.6427875;2.266045;0.3197996;2.197261;
637953133464343024;1714.081;39;6;1.5;1.1;2;899;1.66852057842047;0.9848077;1.673648;0.8049859;1.707074;-0.8660251;0.9999995;-0.5915858;1.116807;
637953133474345274;1715.081;39;6;1.5;1.1;2;1000;1.5;-0.9848078;1.673648;-1.039112;1.708392;0.9848077;1.673648;0.8049859;1.707074;
637953133483337297;1715.981;39;6;1.5;1.1;2;900;1.66666666666667;0.8660256;1;0.6250511;1.211235;-0.9848078;1.673648;-1.039112;1.708392;
637953133493329539;1716.98;39;6;1.5;1.1;2;1000;1.5;-0.6427882;2.266044;-0.5026825;2.313848;0.8660256;1;0.6250511;1.211235;
637953133502331567;1717.88;39;6;1.5;1.1;2;900;1.66666666666667;0.3420205;0.5603075;0.1334081;0.7101589;-0.6427882;2.266044;-0.5026825;2.313848;
637953133520325610;1719.679;39;6;2;0.6;1.8;999;2.002002002002;-0.3078177;0.6542765;-0.3866172;0.7751727;0;2.4;0.0039517;2.413267;
637953133531318082;1720.779;39;6;2;0.6;1.8;1100;1.81818181818182;0.5785087;2.18944;0.503547;2.104294;-0.3078177;0.6542765;-0.3866172;0.7751727;
637953133540360115;1721.683;39;6;2;0.6;1.8;904;2.21238938053097;-0.7794226;1.05;-0.599194;1.167599;0.5785087;2.18944;0.503547;2.104294;
637953133554303253;1723.078;39;6;2;0.6;1.8;1395;1.4336917562724;0.8863269;1.656283;0.8163012;1.645465;-0.7794226;1.05;-0.599194;1.167599;
637953133578298641;1725.477;39;6;2;0.6;1.8;2399;0.833680700291788;-0.8863271;1.656283;-0.7312121;1.729725;0.8863269;1.656283;0.8163012;1.645465;
637953133589291118;1726.576;39;6;2;0.6;1.8;1099;1.81983621474067;0.779423;1.05;0.569149;1.102073;-0.8863271;1.656283;-0.7312121;1.729725;
637953133640372601;1731.684;39;6;2;0.6;1.8;5109;0.391466040321002;-0.5785094;2.18944;-0.5286955;2.058781;0.779423;1.05;0.569149;1.102073;
637953133657366424;1733.384;39;6;2;0.6;1.8;1699;1.17716303708064;0.3078185;0.6542768;0.2173133;0.7993994;-0.5785094;2.18944;-0.5286955;2.058781;
637953133714391494;1739.086;39;6;3;0.2;1.4;4603;0.651748859439496;-0.2394138;0.8422151;-0.2392514;0.8613102;0;2.2;-0.02628105;2.264519;
637953133742440624;1741.891;39;6;3;0.2;1.4;2805;1.06951871657754;0.4499513;2.036231;0.4187602;2.007302;-0.2394138;0.8422151;-0.2392514;0.8613102;
637953133754433320;1743.091;39;6;3;0.2;1.4;1199;2.50208507089241;-0.6062176;1.15;-0.6690643;1.199799;0.4499513;2.036231;0.4187602;2.007302;
637953133784417310;1746.089;39;6;3;0.2;1.4;2999;1.00033344448149;0.6893654;1.621554;0.6542044;1.645587;-0.6062176;1.15;-0.6690643;1.199799;
637953133799414730;1747.588;39;6;3;0.2;1.4;1499;2.00133422281521;-0.6893655;1.621553;-0.6521426;1.638577;0.6893654;1.621554;0.6542044;1.645587;
637953133814406289;1749.088;39;6;3;0.2;1.4;1500;2;0.6062179;1.15;0.580766;1.181717;-0.6893655;1.621553;-0.6521426;1.638577;
637953133826399607;1750.287;39;6;3;0.2;1.4;1200;2.5;-0.4499517;2.036231;-0.3577866;2.002007;0.6062179;1.15;0.580766;1.181717;
637953133840402751;1751.687;39;6;3;0.2;1.4;1399;2.14438884917798;0.2394144;0.8422153;0.2372254;0.9383761;-0.4499517;2.036231;-0.3577866;2.002007;
637953134582728361;1825.919;39;7;2.5;0.3;1.4;1499;1.66777851901268;-0.2394138;0.8422151;-0.2190901;0.9184176;0;2.2;-0.07446044;2.196844;
637953134602712855;1827.919;39;7;2.5;0.3;1.4;1999;1.25062531265633;0.4499513;2.036231;0.435928;2.027543;-0.2394138;0.8422151;-0.2190901;0.9184176;
637953134618826475;1829.529;39;7;2.5;0.3;1.4;1611;1.55183116076971;-0.6062176;1.15;-0.6055382;1.264623;0.4499513;2.036231;0.435928;2.027543;
637953134632818480;1830.928;39;7;2.5;0.3;1.4;1399;1.78699070764832;0.6893654;1.621554;0.5971054;1.595231;-0.6062176;1.15;-0.6055382;1.264623;
637953134646801621;1832.327;39;7;2.5;0.3;1.4;1399;1.78699070764832;-0.6893655;1.621553;-0.6679888;1.622691;0.6893654;1.621554;0.5971054;1.595231;
637953134669794494;1834.626;39;7;2.5;0.3;1.4;2299;1.08742931709439;0.6062179;1.15;0.5288883;1.202545;-0.6893655;1.621553;-0.6679888;1.622691;
637953134686791653;1836.326;39;7;2.5;0.3;1.4;1699;1.47145379635079;-0.4499517;2.036231;-0.4175999;2.046619;0.6062179;1.15;0.5288883;1.202545;
637953134703781804;1838.025;39;7;2.5;0.3;1.4;1699;1.47145379635079;0.2394144;0.8422153;0.1680025;0.8658634;-0.4499517;2.036231;-0.4175999;2.046619;
637953134785851595;1846.232;39;7;4.5;0.1;2.2;4198;1.07193901858028;-0.3762217;0.4663379;-0.3594215;0.4861462;0;2.6;0.006520811;2.574993;
637953134808851291;1848.532;39;7;4.5;0.1;2.2;2299;1.9573727707699;0.7070663;2.342649;0.6951519;2.307678;-0.3762217;0.4663379;-0.3594215;0.4861462;
637953134866931385;1854.34;39;7;4.5;0.1;2.2;5808;0.774793388429752;-0.9526277;0.9499994;-0.9252925;0.9675413;0.7070663;2.342649;0.6951519;2.307678;
637953134899911255;1857.638;39;7;4.5;0.1;2.2;3298;1.36446331109763;1.083289;1.691013;1.051639;1.659096;-0.9526277;0.9499994;-0.9252925;0.9675413;
637953134918900959;1859.537;39;7;4.5;0.1;2.2;1899;2.3696682464455;-1.083289;1.691012;-1.081705;1.685478;1.083289;1.691013;1.051639;1.659096;
637953134934009590;1861.048;39;7;4.5;0.1;2.2;1510;2.98013245033113;0.9526281;0.9500003;0.9674678;0.9814287;-1.083289;1.691012;-1.081705;1.685478;
637953134961991568;1863.846;39;7;4.5;0.1;2.2;2799;1.60771704180064;-0.7070671;2.342648;-0.7103658;2.298835;0.9526281;0.9500003;0.9674678;0.9814287;
637953134984989056;1866.146;39;7;4.5;0.1;2.2;2299;1.9573727707699;0.3762226;0.4663382;0.3781203;0.4828296;-0.7070671;2.342648;-0.7103658;2.298835;
637953135023967821;1870.044;39;7;4;0.1;1.4;2099;1.90566936636494;-0.2394138;0.8422151;-0.246694;0.8788472;0;2.2;0.009362765;2.17911;
637953135046952987;1872.343;39;7;4;0.1;1.4;2299;1.73988690735102;0.4499513;2.036231;0.4302597;2.038062;-0.2394138;0.8422151;-0.246694;0.8788472;
637953135068057733;1874.453;39;7;4;0.1;1.4;2110;1.8957345971564;-0.6062176;1.15;-0.617995;1.158423;0.4499513;2.036231;0.4302597;2.038062;
637953135087052002;1876.352;39;7;4;0.1;1.4;1899;2.10637177461822;0.6893654;1.621554;0.6652723;1.606346;-0.6062176;1.15;-0.617995;1.158423;
637953135099044700;1877.552;39;7;4;0.1;1.4;1199;3.33611342785655;-0.6893655;1.621553;-0.6582553;1.607319;0.6893654;1.621554;0.6652723;1.606346;
637953135117038743;1879.351;39;7;4;0.1;1.4;1799;2.22345747637576;0.6062179;1.15;0.6155292;1.134388;-0.6893655;1.621553;-0.6582553;1.607319;
637953135135022791;1881.15;39;7;4;0.1;1.4;1799;2.22345747637576;-0.4499517;2.036231;-0.4645092;2.022327;0.6062179;1.15;0.6155292;1.134388;
637953135161018629;1883.749;39;7;4;0.1;1.4;2599;1.5390534821085;0.2394144;0.8422153;0.2409979;0.851841;-0.4499517;2.036231;-0.4645092;2.022327;
637953135182003350;1885.848;39;7;1.5;1.1;2;900;1.66666666666667;-0.3420197;0.5603072;-0.2580082;0.8410256;0;2.5;0.01622374;2.292506;
637953135192005602;1886.847;39;7;1.5;1.1;2;1000;1.5;0.6427875;2.266045;0.5095927;2.108145;-0.3420197;0.5603072;-0.2580082;0.8410256;
637953135201107647;1887.758;39;7;1.5;1.1;2;911;1.64654226125137;-0.8660251;0.9999995;-0.7254857;1.160422;0.6427875;2.266045;0.5095927;2.108145;
637953135210109671;1888.658;39;7;1.5;1.1;2;900;1.66666666666667;0.9848077;1.673648;0.8971724;1.563003;-0.8660251;0.9999995;-0.7254857;1.160422;
637953135219101694;1889.557;39;7;1.5;1.1;2;899;1.66852057842047;-0.9848078;1.673648;-0.8208116;1.676083;0.9848077;1.673648;0.8971724;1.563003;
637953135228093713;1890.457;39;7;1.5;1.1;2;899;1.66852057842047;0.8660256;1;0.7266718;1.179999;-0.9848078;1.673648;-0.8208116;1.676083;
637953135237105741;1891.357;39;7;1.5;1.1;2;901;1.66481687014428;-0.6427882;2.266044;-0.544661;2.024792;0.8660256;1;0.7266718;1.179999;
637953135247087983;1892.356;39;7;1.5;1.1;2;999;1.5015015015015;0.3420205;0.5603075;0.1741437;0.8723344;-0.6427882;2.266044;-0.544661;2.024792;
637953135264076856;1894.055;39;7;2;0.6;1.8;900;2.22222222222222;-0.3078177;0.6542765;-0.2859201;0.8885045;0;2.4;0.002230543;2.248092;
637953135273072840;1894.954;39;7;2;0.6;1.8;899;2.22469410456062;0.5785087;2.18944;0.7105873;2.049504;-0.3078177;0.6542765;-0.2859201;0.8885045;
637953135282074863;1895.854;39;7;2;0.6;1.8;900;2.22222222222222;-0.7794226;1.05;-0.8110429;1.228116;0.5785087;2.18944;0.7105873;2.049504;
637953135291066885;1896.754;39;7;2;0.6;1.8;900;2.22222222222222;0.8863269;1.656283;0.8341262;1.64068;-0.7794226;1.05;-0.8110429;1.228116;
637953135300068909;1897.653;39;7;2;0.6;1.8;900;2.22222222222222;-0.8863271;1.656283;-0.7632319;1.699785;0.8863269;1.656283;0.8341262;1.64068;
637953135309060932;1898.553;39;7;2;0.6;1.8;900;2.22222222222222;0.779423;1.05;0.8159388;1.217682;-0.8863271;1.656283;-0.7632319;1.699785;
637953135328053626;1900.452;39;7;2;0.6;1.8;1899;1.05318588730911;-0.5785094;2.18944;-0.5050979;2.190666;0.779423;1.05;0.8159388;1.217682;
637953135338049842;1901.452;39;7;2;0.6;1.8;1000;2;0.3078185;0.6542768;0.2875408;0.7084308;-0.5785094;2.18944;-0.5050979;2.190666;
637953135364149558;1904.062;39;7;3;0.2;1.4;1499;2.00133422281521;-0.2394138;0.8422151;-0.2445611;0.8714696;0;2.2;-0.01475622;2.181824;
637953135375139871;1905.161;39;7;3;0.2;1.4;1100;2.72727272727273;0.4499513;2.036231;0.4933217;2.05239;-0.2394138;0.8422151;-0.2445611;0.8714696;
637953135395129450;1907.16;39;7;3;0.2;1.4;1999;1.50075037518759;-0.6062176;1.15;-0.5719773;1.149135;0.4499513;2.036231;0.4933217;2.05239;
637953135420235419;1909.67;39;7;3;0.2;1.4;2510;1.19521912350598;0.6893654;1.621554;0.6369209;1.589798;-0.6062176;1.15;-0.5719773;1.149135;
637953135431227892;1910.77;39;7;3;0.2;1.4;1100;2.72727272727273;-0.6893655;1.621553;-0.6689591;1.619933;0.6893654;1.621554;0.6369209;1.589798;
637953135453222841;1912.969;39;7;3;0.2;1.4;2199;1.36425648021828;0.6062179;1.15;0.5211314;1.177345;-0.6893655;1.621553;-0.6689591;1.619933;
637953135470206657;1914.668;39;7;3;0.2;1.4;1699;1.76574455562095;-0.4499517;2.036231;-0.4371645;2.011826;0.6062179;1.15;0.5211314;1.177345;
637953135486550330;1916.31;39;7;3;0.2;1.4;1642;1.82704019488429;0.2394144;0.8422153;0.2195149;0.7600611;-0.4499517;2.036231;-0.4371645;2.011826;
637953135517187217;1919.366;39;7;3.5;0.2;2;1399;2.50178699070765;-0.3420197;0.5603072;-0.3161795;0.6331298;0;2.5;-0.08163287;2.469845;
637953135532180588;1920.865;39;7;3.5;0.2;2;1500;2.33333333333333;0.6427875;2.266045;0.6569734;2.226437;-0.3420197;0.5603072;-0.3161795;0.6331298;
637953135546223750;1922.269;39;7;3.5;0.2;2;1404;2.49287749287749;-0.8660251;0.9999995;-0.7888548;1.027422;0.6427875;2.266045;0.6569734;2.226437;
637953135575160252;1925.163;39;7;3.5;0.2;2;2894;1.20939875604699;0.9848077;1.673648;1.063281;1.684631;-0.8660251;0.9999995;-0.7888548;1.027422;
637953135593264324;1926.973;39;7;3.5;0.2;2;1810;1.93370165745856;-0.9848078;1.673648;-0.9411892;1.700355;0.9848077;1.673648;1.063281;1.684631;
637953135608257693;1928.472;39;7;3.5;0.2;2;1499;2.33488992661775;0.8660256;1;0.8160331;1.060561;-0.9848078;1.673648;-0.9411892;1.700355;
637953135623251063;1929.972;39;7;3.5;0.2;2;1500;2.33333333333333;-0.6427882;2.266044;-0.6314593;2.260483;0.8660256;1;0.8160331;1.060561;
637953135642245335;1931.871;39;7;3.5;0.2;2;1899;1.84307530279094;0.3420205;0.5603075;0.2817155;0.6010591;-0.6427882;2.266044;-0.6314593;2.260483;
