637945181549277841;301.6021;3;0;3;0.2;1.4;1300;2.30769230769231;-0.2394138;0.8422151;-0.1974419;0.8971322;0;2.2;-0.04695129;2.192369;
637945181560270432;302.7016;3;0;3;0.2;1.4;1099;2.72975432211101;0.4499513;2.036231;0.3812522;1.964973;-0.2394138;0.8422151;-0.1974419;0.8971322;
637945181570292791;303.7036;3;0;3;0.2;1.4;1002;2.9940119760479;-0.6062176;1.15;-0.5786702;1.149225;0.4499513;2.036231;0.3812522;1.964973;
637945181579374937;304.6118;3;0;3;0.2;1.4;908;3.30396475770925;0.6893654;1.621554;0.6557213;1.669607;-0.6062176;1.15;-0.5786702;1.149225;
637945181588367099;305.5114;3;0;3;0.2;1.4;900;3.33333333333333;-0.6893655;1.621553;-0.6495944;1.582917;0.6893654;1.621554;0.6557213;1.669607;
637945181615360784;308.2102;3;0;3;0.2;1.4;2699;1.11152278621712;0.6062179;1.15;0.5695823;1.19077;-0.6893655;1.621553;-0.6495944;1.582917;
637945181625353130;309.2097;3;0;3;0.2;1.4;999;3.003003003003;-0.4499517;2.036231;-0.4395832;2.079514;0.6062179;1.15;0.5695823;1.19077;
637945181638346032;310.5091;3;0;3;0.2;1.4;1299;2.3094688221709;0.2394144;0.8422153;0.2425826;0.9102973;-0.4499517;2.036231;-0.4395832;2.079514;
637945181675332288;314.2075;3;0;4.5;0.1;2.2;1699;2.64861683343143;-0.3762217;0.4663379;-0.3680676;0.4573814;0;2.6;0.002251612;2.599881;
637945181688321947;315.507;3;0;4.5;0.1;2.2;1300;3.46153846153846;0.7070663;2.342649;0.677498;2.369259;-0.3762217;0.4663379;-0.3680676;0.4573814;
637945181707312616;317.4059;3;0;4.5;0.1;2.2;1899;2.3696682464455;-0.9526277;0.9499994;-0.9316172;0.9715207;0.7070663;2.342649;0.677498;2.369259;
637945181721303840;318.8052;3;0;4.5;0.1;2.2;1399;3.21658327376698;1.083289;1.691013;1.039192;1.684517;-0.9526277;0.9499994;-0.9316172;0.9715207;
637945181732418536;319.9158;3;0;4.5;0.1;2.2;1111;4.05040504050405;-1.083289;1.691012;-1.064558;1.692964;1.083289;1.691013;1.039192;1.684517;
637945181744411364;321.1153;3;0;4.5;0.1;2.2;1200;3.75;0.9526281;0.9500003;0.9680448;0.9593526;-1.083289;1.691012;-1.064558;1.692964;
637945181757404423;322.4146;3;0;4.5;0.1;2.2;1299;3.46420323325635;-0.7070671;2.342648;-0.6998537;2.316286;0.9526281;0.9500003;0.9680448;0.9593526;
637945181769397248;323.6141;3;0;4.5;0.1;2.2;1200;3.75;0.3762226;0.4663382;0.407058;0.5049403;-0.7070671;2.342648;-0.6998537;2.316286;
637945181787501513;325.4245;3;0;2.5;0.3;1.4;911;2.74423710208562;-0.2394138;0.8422151;-0.2754623;0.983795;0;2.2;0.005228561;2.206758;
637945181798504103;326.5241;3;0;2.5;0.3;1.4;1100;2.27272727272727;0.4499513;2.036231;0.3521172;2.076777;-0.2394138;0.8422151;-0.2754623;0.983795;
637945181806495987;327.3237;3;0;2.5;0.3;1.4;800;3.125;-0.6062176;1.15;-0.658596;1.146402;0.4499513;2.036231;0.3521172;2.076777;
637945181814487869;328.1233;3;0;2.5;0.3;1.4;800;3.125;0.6893654;1.621554;0.6065943;1.572196;-0.6062176;1.15;-0.658596;1.146402;
637945181822489749;328.9229;3;0;2.5;0.3;1.4;800;3.125;-0.6893655;1.621553;-0.6325672;1.673608;0.6893654;1.621554;0.6065943;1.572196;
637945181831481871;329.8223;3;0;2.5;0.3;1.4;899;2.78086763070078;0.6062179;1.15;0.5824646;1.206673;-0.6893655;1.621553;-0.6325672;1.673608;
637945181841474227;330.8218;3;0;2.5;0.3;1.4;1000;2.5;-0.4499517;2.036231;-0.423793;1.990252;0.6062179;1.15;0.5824646;1.206673;
637945181852476819;331.9214;3;0;2.5;0.3;1.4;1100;2.27272727272727;0.2394144;0.8422153;0.2506193;0.9143292;-0.4499517;2.036231;-0.423793;1.990252;
637945181878462939;334.5203;3;0;3.5;0.2;2;1099;3.18471337579618;-0.3420197;0.5603072;-0.4025384;0.5636058;0;2.5;0.0008739696;2.442977;
637945181888455287;335.5197;3;0;3.5;0.2;2;999;3.5035035035035;0.6427875;2.266045;0.6595104;2.239574;-0.3420197;0.5603072;-0.4025384;0.5636058;
637945181898447648;336.5192;3;0;3.5;0.2;2;1000;3.5;-0.8660251;0.9999995;-0.838859;1.089327;0.6427875;2.266045;0.6595104;2.239574;
637945181925444005;339.218;3;0;3.5;0.2;2;2699;1.29677658391997;0.9848077;1.673648;0.9397347;1.692831;-0.8660251;0.9999995;-0.838859;1.089327;
637945181936436596;340.3176;3;0;3.5;0.2;2;1100;3.18181818181818;-0.9848078;1.673648;-0.9997804;1.679365;0.9848077;1.673648;0.9397347;1.692831;
637945181960532272;342.7275;3;0;3.5;0.2;2;2410;1.45228215767635;0.8660256;1;0.8143771;1.03474;-0.9848078;1.673648;-0.9997804;1.679365;
637945181971524862;343.8269;3;0;3.5;0.2;2;1099;3.18471337579618;-0.6427882;2.266044;-0.5710159;2.249919;0.8660256;1;0.8143771;1.03474;
637945181983527689;345.0266;3;0;3.5;0.2;2;1200;2.91666666666667;0.3420205;0.5603075;0.344642;0.6365706;-0.6427882;2.266044;-0.5710159;2.249919;
637945181999511454;346.6257;3;0;1.5;1.1;2;800;1.875;-0.3420197;0.5603072;-0.2478872;0.9745013;0;2.5;0.07960334;2.248759;
637945182006513104;347.3253;3;0;1.5;1.1;2;700;2.14285714285714;0.6427875;2.266045;0.697816;2.107212;-0.3420197;0.5603072;-0.2478872;0.9745013;
637945182014504986;348.125;3;0;1.5;1.1;2;800;1.875;-0.8660251;0.9999995;-0.94491;1.40423;0.6427875;2.266045;0.697816;2.107212;
637945182029578539;349.6244;3;0;1.5;1.1;2;1499;1.00066711140761;0.9848077;1.673648;0.5602953;1.785879;-0.8660251;0.9999995;-0.94491;1.40423;
637945182039500874;350.6239;3;0;1.5;1.1;2;999;1.5015015015015;-0.9848078;1.673648;-0.7702139;1.756063;0.9848077;1.673648;0.5602953;1.785879;
637945182055493941;352.2231;3;0;1.5;1.1;2;1599;0.938086303939963;0.8660256;1;0.6360884;1.441125;-0.9848078;1.673648;-0.7702139;1.756063;
637945182066486533;353.3225;3;0;1.5;1.1;2;1099;1.36487716105551;-0.6427882;2.266044;-0.5188789;2.190059;0.8660256;1;0.6360884;1.441125;
637945182076478885;354.3222;3;0;1.5;1.1;2;1000;1.5;0.3420205;0.5603075;0.2674538;0.9992645;-0.6427882;2.266044;-0.5188789;2.190059;
637945182107573368;357.4318;3;0;4;0.1;1.4;1299;3.07929176289453;-0.2394138;0.8422151;-0.2191101;0.8797113;0;2.2;0.01700706;2.174732;
637945182132569250;359.9308;3;0;4;0.1;1.4;2499;1.60064025610244;0.4499513;2.036231;0.4259714;2.002279;-0.2394138;0.8422151;-0.2191101;0.8797113;
637945182145872393;361.2693;3;0;4;0.1;1.4;1338;2.98953662182362;-0.6062176;1.15;-0.5570985;1.15874;0.4499513;2.036231;0.4259714;2.002279;
637945182155554675;362.2296;3;0;4;0.1;1.4;960;4.16666666666667;0.6893654;1.621554;0.6932733;1.657682;-0.6062176;1.15;-0.5570985;1.15874;
637945182165667055;363.2402;3;0;4;0.1;1.4;1011;3.95647873392681;-0.6893655;1.621553;-0.6974532;1.613078;0.6893654;1.621554;0.6932733;1.657682;
637945182187652232;365.4393;3;0;4;0.1;1.4;2199;1.81900864029104;0.6062179;1.15;0.6099662;1.149309;-0.6893655;1.621553;-0.6974532;1.613078;
637945182198644822;366.5387;3;0;4;0.1;1.4;1099;3.63967242948135;-0.4499517;2.036231;-0.4250734;2.015534;0.6062179;1.15;0.6099662;1.149309;
637945182214638589;368.1379;3;0;4;0.1;1.4;1599;2.50156347717323;0.2394144;0.8422153;0.2117998;0.8599011;-0.4499517;2.036231;-0.4250734;2.015534;
637945182233633065;370.037;3;0;2;0.6;1.8;900;2.22222222222222;-0.3078177;0.6542765;-0.2583989;0.9050149;0;2.4;0.05288985;2.237731;
637945182241624946;370.8368;3;0;2;0.6;1.8;800;2.5;0.5785087;2.18944;0.6028602;2.078949;-0.3078177;0.6542765;-0.2583989;0.9050149;
637945182250627065;371.7364;3;0;2;0.6;1.8;900;2.22222222222222;-0.7794226;1.05;-0.7260224;1.137138;0.5785087;2.18944;0.6028602;2.078949;
637945182257618714;372.4359;3;0;2;0.6;1.8;699;2.86123032904149;0.8863269;1.656283;0.767195;1.660101;-0.7794226;1.05;-0.7260224;1.137138;
637945182265620603;373.2357;3;0;2;0.6;1.8;800;2.5;-0.8863271;1.656283;-0.6752403;1.728112;0.8863269;1.656283;0.767195;1.660101;
637945182287605778;375.4346;3;0;2;0.6;1.8;2199;0.909504320145521;0.779423;1.05;0.6721271;1.173962;-0.8863271;1.656283;-0.6752403;1.728112;
637945182297608133;376.434;3;0;2;0.6;1.8;999;2.002002002002;-0.5785094;2.18944;-0.458346;2.05921;0.779423;1.05;0.6721271;1.173962;
637945182306600253;377.334;3;0;2;0.6;1.8;900;2.22222222222222;0.3078185;0.6542768;0.3393691;0.8842291;-0.5785094;2.18944;-0.458346;2.05921;
637945183435979746;490.2701;3;1;3.5;0.2;2;1199;2.91909924937448;-0.3420197;0.5603072;-0.3202193;0.6478447;0;2.5;-0.01903568;2.435215;
637945183445972098;491.2697;3;1;3.5;0.2;2;1000;3.5;0.6427875;2.266045;0.6508891;2.298887;-0.3420197;0.5603072;-0.3202193;0.6478447;
637945183456964688;492.3691;3;1;3.5;0.2;2;1099;3.18471337579618;-0.8660251;0.9999995;-0.8021044;1.028467;0.6427875;2.266045;0.6508891;2.298887;
637945183466376906;493.3188;3;1;3.5;0.2;2;950;3.68421052631579;0.9848077;1.673648;1.071833;1.714246;-0.8660251;0.9999995;-0.8021044;1.028467;
637945183477069422;494.3795;3;1;3.5;0.2;2;1061;3.29877474081056;-0.9848078;1.673648;-1.052646;1.615456;0.9848077;1.673648;1.071833;1.714246;
637945183497054134;496.3785;3;1;3.5;0.2;2;1999;1.75087543771886;0.8660256;1;0.8067851;1.007443;-0.9848078;1.673648;-1.052646;1.615456;
637945183507056487;497.3781;3;1;3.5;0.2;2;1000;3.5;-0.6427882;2.266044;-0.6441658;2.253413;0.8660256;1;0.8067851;1.007443;
637945183517048841;498.3777;3;1;3.5;0.2;2;1000;3.5;0.3420205;0.5603075;0.3015386;0.6496736;-0.6427882;2.266044;-0.6441658;2.253413;
637945183534042845;500.0769;3;1;2;0.6;1.8;800;2.5;-0.3078177;0.6542765;-0.2833084;0.8938354;0;2.4;-0.07159373;2.320776;
637945183542034727;500.8766;3;1;2;0.6;1.8;800;2.5;0.5785087;2.18944;0.5640904;2.13037;-0.3078177;0.6542765;-0.2833084;0.8938354;
637945183548036140;501.4762;3;1;2;0.6;1.8;600;3.33333333333333;-0.7794226;1.05;-0.7743429;1.262718;0.5785087;2.18944;0.5640904;2.13037;
637945183554035492;502.076;3;1;2;0.6;1.8;600;3.33333333333333;0.8863269;1.656283;0.7295842;1.577678;-0.7794226;1.05;-0.7743429;1.262718;
637945183580021715;504.6747;3;1;2;0.6;1.8;2599;0.769526741054252;-0.8863271;1.656283;-0.689579;1.718343;0.8863269;1.656283;0.7295842;1.577678;
637945183589013835;505.5741;3;1;2;0.6;1.8;899;2.22469410456062;0.779423;1.05;0.6124418;1.161322;-0.8863271;1.656283;-0.689579;1.718343;
637945183596015485;506.274;3;1;2;0.6;1.8;700;2.85714285714286;-0.5785094;2.18944;-0.6541272;2.073671;0.779423;1.05;0.6124418;1.161322;
637945183606021599;507.2739;3;1;2;0.6;1.8;1000;2;0.3078185;0.6542768;0.1235664;0.8126341;-0.5785094;2.18944;-0.6541272;2.073671;
637945183622113037;508.8838;3;1;2.5;0.3;1.4;871;2.87026406429392;-0.2394138;0.8422151;-0.2230731;0.9189435;0;2.2;0.08183111;2.082636;
637945183630102696;509.6833;3;1;2.5;0.3;1.4;799;3.12891113892365;0.4499513;2.036231;0.4577158;2.036237;-0.2394138;0.8422151;-0.2230731;0.9189435;
637945183638100462;510.483;3;1;2.5;0.3;1.4;800;3.125;-0.6062176;1.15;-0.5730031;1.240191;0.4499513;2.036231;0.4577158;2.036237;
637945183645097804;511.1827;3;1;2.5;0.3;1.4;700;3.57142857142857;0.6893654;1.621554;0.7336235;1.599408;-0.6062176;1.15;-0.5730031;1.240191;
637945183653099690;511.9824;3;1;2.5;0.3;1.4;800;3.125;-0.6893655;1.621553;-0.6279746;1.631146;0.6893654;1.621554;0.7336235;1.599408;
637945183678085575;514.4813;3;1;2.5;0.3;1.4;2499;1.00040016006403;0.6062179;1.15;0.4866382;1.186599;-0.6893655;1.621553;-0.6279746;1.631146;
637945183687077694;515.3807;3;1;2.5;0.3;1.4;899;2.78086763070078;-0.4499517;2.036231;-0.4317051;2.066719;0.6062179;1.15;0.4866382;1.186599;
637945183696079813;516.2804;3;1;2.5;0.3;1.4;900;2.77777777777778;0.2394144;0.8422153;0.3379553;0.951894;-0.4499517;2.036231;-0.4317051;2.066719;
637945183722065934;518.8792;3;1;4.5;0.1;2.2;1499;3.00200133422282;-0.3762217;0.4663379;-0.3593193;0.4922414;0;2.6;0.03494017;2.582728;
637945183734088770;520.0814;3;1;4.5;0.1;2.2;1202;3.74376039933444;0.7070663;2.342649;0.7024702;2.326296;-0.3762217;0.4663379;-0.3593193;0.4922414;
637945183747061821;521.3781;3;1;4.5;0.1;2.2;1297;3.46954510408635;-0.9526277;0.9499994;-0.9617281;0.9557534;0.7070663;2.342649;0.7024702;2.326296;
637945183758164437;522.4886;3;1;4.5;0.1;2.2;1111;4.05040504050405;1.083289;1.691013;1.09398;1.675133;-0.9526277;0.9499994;-0.9617281;0.9557534;
637945183777148913;524.3878;3;1;4.5;0.1;2.2;1899;2.3696682464455;-1.083289;1.691012;-1.076251;1.710308;1.083289;1.691013;1.09398;1.675133;
637945183792152443;525.887;3;1;4.5;0.1;2.2;1499;3.00200133422282;0.9526281;0.9500003;0.930512;0.9782027;-1.083289;1.691012;-1.076251;1.710308;
637945183804255296;527.0976;3;1;4.5;0.1;2.2;1211;3.7159372419488;-0.7070671;2.342648;-0.7393845;2.342403;0.9526281;0.9500003;0.930512;0.9782027;
637945183817248356;528.3971;3;1;4.5;0.1;2.2;1299;3.46420323325635;0.3762226;0.4663382;0.3934892;0.4995263;-0.7070671;2.342648;-0.7393845;2.342403;
637945183848235654;531.4956;3;1;4;0.1;1.4;1399;2.85918513223731;-0.2394138;0.8422151;-0.2188589;0.8808831;0;2.2;0.02433835;2.238082;
637945183860228480;532.695;3;1;4;0.1;1.4;1199;3.33611342785655;0.4499513;2.036231;0.4423889;2.076408;-0.2394138;0.8422151;-0.2188589;0.8808831;
637945183883213896;534.9939;3;1;4;0.1;1.4;2299;1.73988690735102;-0.6062176;1.15;-0.6039248;1.160856;0.4499513;2.036231;0.4423889;2.076408;
637945183895206721;536.1936;3;1;4;0.1;1.4;1200;3.33333333333333;0.6893654;1.621554;0.6717804;1.641277;-0.6062176;1.15;-0.6039248;1.160856;
637945183907199546;537.3928;3;1;4;0.1;1.4;1199;3.33611342785655;-0.6893655;1.621553;-0.6783609;1.631896;0.6893654;1.621554;0.6717804;1.641277;
637945183916201664;538.2924;3;1;4;0.1;1.4;900;4.44444444444444;0.6062179;1.15;0.5591282;1.137087;-0.6893655;1.621553;-0.6783609;1.631896;
637945183925198840;539.192;3;1;4;0.1;1.4;900;4.44444444444444;-0.4499517;2.036231;-0.4620134;2.052397;0.6062179;1.15;0.5591282;1.137087;
637945183935191194;540.1918;3;1;4;0.1;1.4;1000;4;0.2394144;0.8422153;0.2271108;0.8678672;-0.4499517;2.036231;-0.4620134;2.052397;
637945183948301825;541.5021;3;1;1.5;1.1;2;611;2.45499181669394;-0.3420197;0.5603072;-0.2814922;1.07724;0;2.5;0.05555586;2.269368;
637945183954293237;542.1019;3;1;1.5;1.1;2;600;2.5;0.6427875;2.266045;0.4309103;1.967449;-0.3420197;0.5603072;-0.2814922;1.07724;
637945183960294651;542.7015;3;1;1.5;1.1;2;600;2.5;-0.8660251;0.9999995;-0.7066071;1.425523;0.6427875;2.266045;0.4309103;1.967449;
637945183965295828;543.2013;3;1;1.5;1.1;2;500;3;0.9848077;1.673648;0.4572029;1.708275;-0.8660251;0.9999995;-0.7066071;1.425523;
637945183976288418;544.3007;3;1;1.5;1.1;2;1099;1.36487716105551;-0.9848078;1.673648;-0.590923;1.82842;0.9848077;1.673648;0.4572029;1.708275;
637945183984278336;545.1003;3;1;1.5;1.1;2;800;1.875;0.8660256;1;0.6430326;1.308106;-0.9848078;1.673648;-0.590923;1.82842;
637945183994273357;546.0999;3;1;1.5;1.1;2;1000;1.5;-0.6427882;2.266044;-0.3195887;2.107332;0.8660256;1;0.6430326;1.308106;
637945184003535875;547.0338;3;1;1.5;1.1;2;934;1.60599571734475;0.3420205;0.5603075;0.07122599;1.039021;-0.6427882;2.266044;-0.3195887;2.107332;
637945184037255170;550.3979;3;1;3;0.2;1.4;2399;1.25052105043768;-0.2394138;0.8422151;-0.2326966;0.8736376;0;2.2;-0.01749983;2.162158;
637945184047258092;551.3977;3;1;3;0.2;1.4;1000;3;0.4499513;2.036231;0.4166431;1.991601;-0.2394138;0.8422151;-0.2326966;0.8736376;
637945184065360944;553.2077;3;1;3;0.2;1.4;1810;1.65745856353591;-0.6062176;1.15;-0.5727583;1.204138;0.4499513;2.036231;0.4166431;1.991601;
637945184074353069;554.1074;3;1;3;0.2;1.4;900;3.33333333333333;0.6893654;1.621554;0.6805087;1.594058;-0.6062176;1.15;-0.5727583;1.204138;
637945184082354947;554.9072;3;1;3;0.2;1.4;800;3.75;-0.6893655;1.621553;-0.7363924;1.564993;0.6893654;1.621554;0.6805087;1.594058;
637945184091347065;555.8065;3;1;3;0.2;1.4;899;3.33704115684093;0.6062179;1.15;0.5978949;1.087014;-0.6893655;1.621553;-0.7363924;1.564993;
637945184099338948;556.6061;3;1;3;0.2;1.4;800;3.75;-0.4499517;2.036231;-0.4061135;1.988421;0.6062179;1.15;0.5978949;1.087014;
637945184117333179;558.4053;3;1;3;0.2;1.4;1799;1.66759310728182;0.2394144;0.8422153;0.1970108;0.9081874;-0.4499517;2.036231;-0.4061135;1.988421;
637945185201952026;666.8661;3;2;2;0.6;1.8;800;2.5;-0.3078177;0.6542765;-0.2161498;0.9106935;0;2.4;-0.01816427;2.329217;
637945185208943674;667.5657;3;2;2;0.6;1.8;700;2.85714285714286;0.5785087;2.18944;0.4879402;2.118364;-0.3078177;0.6542765;-0.2161498;0.9106935;
637945185215945321;668.2655;3;2;2;0.6;1.8;700;2.85714285714286;-0.7794226;1.05;-0.7901156;1.219211;0.5785087;2.18944;0.4879402;2.118364;
637945185232939326;669.9647;3;2;2;0.6;1.8;1699;1.17716303708064;0.8863269;1.656283;0.6787237;1.693805;-0.7794226;1.05;-0.7901156;1.219211;
637945185239932711;670.6644;3;2;2;0.6;1.8;700;2.85714285714286;-0.8863271;1.656283;-0.8159842;1.702864;0.8863269;1.656283;0.6787237;1.693805;
637945185245934124;671.264;3;2;2;0.6;1.8;600;3.33333333333333;0.779423;1.05;0.6469389;1.235756;-0.8863271;1.656283;-0.8159842;1.702864;
637945185254926607;672.1635;3;2;2;0.6;1.8;899;2.22469410456062;-0.5785094;2.18944;-0.636947;2.242968;0.779423;1.05;0.6469389;1.235756;
637945185262918489;672.9632;3;2;2;0.6;1.8;800;2.5;0.3078185;0.6542768;0.2889371;0.8930962;-0.5785094;2.18944;-0.636947;2.242968;
637945185280022520;674.6738;3;2;3;0.2;1.4;911;3.29308452250274;-0.2394138;0.8422151;-0.1895172;0.9073648;0;2.2;-0.01696214;2.27509;
637945185288024434;675.4734;3;2;3;0.2;1.4;800;3.75;0.4499513;2.036231;0.3686055;2.065761;-0.2394138;0.8422151;-0.1895172;0.9073648;
637945185297019979;676.3729;3;2;3;0.2;1.4;899;3.33704115684093;-0.6062176;1.15;-0.5793179;1.240114;0.4499513;2.036231;0.3686055;2.065761;
637945185310007016;677.6722;3;2;3;0.2;1.4;1299;2.3094688221709;0.6893654;1.621554;0.6206393;1.612828;-0.6062176;1.15;-0.5793179;1.240114;
637945185319009338;678.5718;3;2;3;0.2;1.4;900;3.33333333333333;-0.6893655;1.621553;-0.6493009;1.618383;0.6893654;1.621554;0.6206393;1.612828;
637945185335999487;680.2711;3;2;3;0.2;1.4;1699;1.76574455562095;0.6062179;1.15;0.5537891;1.235154;-0.6893655;1.621553;-0.6493009;1.618383;
637945185350989871;681.7703;3;2;3;0.2;1.4;1499;2.00133422281521;-0.4499517;2.036231;-0.3752884;2.022381;0.6062179;1.15;0.5537891;1.235154;
637945185360989004;682.7698;3;2;3;0.2;1.4;999;3.003003003003;0.2394144;0.8422153;0.205957;0.9040986;-0.4499517;2.036231;-0.3752884;2.022381;
637945185382982973;684.9689;3;2;3.5;0.2;2;1300;2.69230769230769;-0.3420197;0.5603072;-0.347979;0.6560152;0;2.5;0.008992199;2.43103;
637945185392975327;685.9684;3;2;3.5;0.2;2;999;3.5035035035035;0.6427875;2.266045;0.5989199;2.207495;-0.3420197;0.5603072;-0.347979;0.6560152;
637945185402977683;686.9679;3;2;3.5;0.2;2;999;3.5035035035035;-0.8660251;0.9999995;-0.8006951;1.055434;0.6427875;2.266045;0.5989199;2.207495;
637945185413340127;688.0125;3;2;3.5;0.2;2;1045;3.34928229665072;0.9848077;1.673648;0.8859614;1.671149;-0.8660251;0.9999995;-0.8006951;1.055434;
637945185423072417;688.9781;3;2;3.5;0.2;2;966;3.6231884057971;-0.9848078;1.673648;-0.8870603;1.693675;0.9848077;1.673648;0.8859614;1.671149;
637945185446057831;691.277;3;2;3.5;0.2;2;2299;1.52240104393214;0.8660256;1;0.7854589;1.014799;-0.9848078;1.673648;-0.8870603;1.693675;
637945185456060183;692.2766;3;2;3.5;0.2;2;1000;3.5;-0.6427882;2.266044;-0.6602535;2.238959;0.8660256;1;0.7854589;1.014799;
637945185466052540;693.2762;3;2;3.5;0.2;2;1000;3.5;0.3420205;0.5603075;0.3254221;0.6500283;-0.6427882;2.266044;-0.6602535;2.238959;
637945185484356857;695.1141;3;2;4;0.1;1.4;938;4.26439232409382;-0.2394138;0.8422151;-0.2387737;0.7973794;0;2.2;-0.01116722;2.189387;
637945185504041488;697.0745;3;2;4;0.1;1.4;1960;2.04081632653061;0.4499513;2.036231;0.4481786;2.041793;-0.2394138;0.8422151;-0.2387737;0.7973794;
637945185516034314;698.2738;3;2;4;0.1;1.4;1199;3.33611342785655;-0.6062176;1.15;-0.6039096;1.185249;0.4499513;2.036231;0.4481786;2.041793;
637945185525026433;699.1733;3;2;4;0.1;1.4;899;4.44938820912125;0.6893654;1.621554;0.7017325;1.588023;-0.6062176;1.15;-0.6039096;1.185249;
637945185544010901;701.0723;3;2;4;0.1;1.4;1899;2.10637177461822;-0.6893655;1.621553;-0.7010106;1.649503;0.6893654;1.621554;0.7017325;1.588023;
637945185555013498;702.1722;3;2;4;0.1;1.4;1100;3.63636363636364;0.6062179;1.15;0.5820327;1.182487;-0.6893655;1.621553;-0.7010106;1.649503;
637945185569116813;703.5824;3;2;4;0.1;1.4;1410;2.83687943262411;-0.4499517;2.036231;-0.4593054;2.037408;0.6062179;1.15;0.5820327;1.182487;
637945185602104589;706.8809;3;2;4;0.1;1.4;3299;1.21248863291907;0.2394144;0.8422153;0.2503241;0.8468329;-0.4499517;2.036231;-0.4593054;2.037408;
637945185639083302;710.5792;3;2;4.5;0.1;2.2;1999;2.25112556278139;-0.3762217;0.4663379;-0.3550935;0.4904246;0;2.6;-0.005464006;2.587259;
637945185660328308;712.7115;3;2;4.5;0.1;2.2;2132;2.11069418386492;0.7070663;2.342649;0.6808561;2.300133;-0.3762217;0.4663379;-0.3550935;0.4904246;
637945185674071543;714.0776;3;2;4.5;0.1;2.2;1366;3.29428989751098;-0.9526277;0.9499994;-0.9183676;0.9726479;0.7070663;2.342649;0.6808561;2.300133;
637945185685064131;715.177;3;2;4.5;0.1;2.2;1099;4.09463148316652;1.083289;1.691013;1.072276;1.719755;-0.9526277;0.9499994;-0.9183676;0.9726479;
637945185697056986;716.3764;3;2;4.5;0.1;2.2;1199;3.75312760633862;-1.083289;1.691012;-1.041481;1.692915;1.083289;1.691013;1.072276;1.719755;
637945185724149474;719.0862;3;2;4.5;0.1;2.2;2710;1.66051660516605;0.9526281;0.9500003;0.9224281;0.9533677;-1.083289;1.691012;-1.041481;1.692915;
637945185745154429;721.1855;3;2;4.5;0.1;2.2;2099;2.14387803716055;-0.7070671;2.342648;-0.7001658;2.327034;0.9526281;0.9500003;0.9224281;0.9533677;
637945185759145629;722.5848;3;2;4.5;0.1;2.2;1399;3.21658327376698;0.3762226;0.4663382;0.3785575;0.4683456;-0.7070671;2.342648;-0.7001658;2.327034;
637945185775137492;724.184;3;2;1.5;1.1;2;700;2.14285714285714;-0.3420197;0.5603072;-0.2270121;0.9115496;0;2.5;0.04483664;2.193782;
637945185781128897;724.7838;3;2;1.5;1.1;2;600;2.5;0.6427875;2.266045;0.3632046;1.975361;-0.3420197;0.5603072;-0.2270121;0.9115496;
637945185787135255;725.3835;3;2;1.5;1.1;2;600;2.5;-0.8660251;0.9999995;-0.6547785;1.418643;0.6427875;2.266045;0.3632046;1.975361;
637945185803118339;726.9825;3;2;1.5;1.1;2;1599;0.938086303939963;0.9848077;1.673648;0.4908619;1.83978;-0.8660251;0.9999995;-0.6547785;1.418643;
637945185810119990;727.6823;3;2;1.5;1.1;2;700;2.14285714285714;-0.9848078;1.673648;-0.7128162;1.775781;0.9848077;1.673648;0.4908619;1.83978;
637945185823113049;728.9816;3;2;1.5;1.1;2;1299;1.15473441108545;0.8660256;1;0.6637713;1.474101;-0.9848078;1.673648;-0.7128162;1.775781;
637945185831104928;729.7813;3;2;1.5;1.1;2;800;1.875;-0.6427882;2.266044;-0.5018342;2.073131;0.8660256;1;0.6637713;1.474101;
637945185839106807;730.5809;3;2;1.5;1.1;2;800;1.875;0.3420205;0.5603075;0.2513776;1.021386;-0.6427882;2.266044;-0.5018342;2.073131;
637945185864092699;733.0798;3;2;2.5;0.3;1.4;1099;2.27479526842584;-0.2394138;0.8422151;-0.1924359;0.9569246;0;2.2;0.03166939;2.114529;
637945185872204611;733.8907;3;2;2.5;0.3;1.4;811;3.0826140567201;0.4499513;2.036231;0.3979699;2.030917;-0.2394138;0.8422151;-0.1924359;0.9569246;
637945185882196965;734.89;3;2;2.5;0.3;1.4;999;2.5025025025025;-0.6062176;1.15;-0.5939677;1.161757;0.4499513;2.036231;0.3979699;2.030917;
637945185889188616;735.5898;3;2;2.5;0.3;1.4;700;3.57142857142857;0.6893654;1.621554;0.7334114;1.663448;-0.6062176;1.15;-0.5939677;1.161757;
637945185897190497;736.3895;3;2;2.5;0.3;1.4;800;3.125;-0.6893655;1.621553;-0.6049358;1.640628;0.6893654;1.621554;0.7334114;1.663448;
637945185904182136;737.0892;3;2;2.5;0.3;1.4;700;3.57142857142857;0.6062179;1.15;0.5998717;1.246172;-0.6893655;1.621553;-0.6049358;1.640628;
637945185911183796;737.7889;3;2;2.5;0.3;1.4;700;3.57142857142857;-0.4499517;2.036231;-0.4731901;2.010334;0.6062179;1.15;0.5998717;1.246172;
637945185919185678;738.5885;3;2;2.5;0.3;1.4;800;3.125;0.2394144;0.8422153;0.2946726;0.9031148;-0.4499517;2.036231;-0.4731901;2.010334;
637945187009481180;847.6156;3;3;3.5;0.2;2;1100;3.18181818181818;-0.3420197;0.5603072;-0.3743694;0.6451306;0;2.5;0.004243358;2.468409;
637945187033576863;850.0256;3;3;3.5;0.2;2;2410;1.45228215767635;0.6427875;2.266045;0.5837411;2.215691;-0.3420197;0.5603072;-0.3743694;0.6451306;
637945187043569217;851.0252;3;3;3.5;0.2;2;1000;3.5;-0.8660251;0.9999995;-0.78478;1.009381;0.6427875;2.266045;0.5837411;2.215691;
637945187053571573;852.0248;3;3;3.5;0.2;2;1000;3.5;0.9848077;1.673648;0.9882531;1.712923;-0.8660251;0.9999995;-0.78478;1.009381;
637945187061563456;852.8244;3;3;3.5;0.2;2;800;4.375;-0.9848078;1.673648;-0.9519297;1.674442;0.9848077;1.673648;0.9882531;1.712923;
637945187079557692;854.6234;3;3;3.5;0.2;2;1799;1.94552529182879;0.8660256;1;0.8208462;1.033569;-0.9848078;1.673648;-0.9519297;1.674442;
637945187089550048;855.623;3;3;3.5;0.2;2;1000;3.5;-0.6427882;2.266044;-0.6433308;2.303037;0.8660256;1;0.8208462;1.033569;
637945187107544287;857.4222;3;3;3.5;0.2;2;1799;1.94552529182879;0.3420205;0.5603075;0.3382615;0.6170977;-0.6427882;2.266044;-0.6433308;2.303037;
637945187125538525;859.2216;3;3;3;0.2;1.4;799;3.75469336670839;-0.2394138;0.8422151;-0.1664829;0.8355459;0;2.2;0.001715896;2.21333;
637945187133530409;860.0211;3;3;3;0.2;1.4;800;3.75;0.4499513;2.036231;0.5254543;2.010788;-0.2394138;0.8422151;-0.1664829;0.8355459;
637945187141532293;860.8208;3;3;3;0.2;1.4;800;3.75;-0.6062176;1.15;-0.55642;1.193373;0.4499513;2.036231;0.5254543;2.010788;
637945187147523704;861.4203;3;3;3;0.2;1.4;600;5;0.6893654;1.621554;0.7153239;1.552793;-0.6062176;1.15;-0.55642;1.193373;
637945187155525588;862.2199;3;3;3;0.2;1.4;799;3.75469336670839;-0.6893655;1.621553;-0.6351436;1.654345;0.6893654;1.621554;0.7153239;1.552793;
637945187174520066;864.1193;3;3;3;0.2;1.4;1899;1.57977883096367;0.6062179;1.15;0.5746929;1.224147;-0.6893655;1.621553;-0.6351436;1.654345;
637945187183622207;865.0298;3;3;3;0.2;1.4;911;3.29308452250274;-0.4499517;2.036231;-0.4802023;1.966791;0.6062179;1.15;0.5746929;1.224147;
637945187200616204;866.7292;3;3;3;0.2;1.4;1699;1.76574455562095;0.2394144;0.8422153;0.2403586;0.8209521;-0.4499517;2.036231;-0.4802023;1.966791;
637945187214604576;868.1284;3;3;1.5;1.1;2;599;2.50417362270451;-0.3420197;0.5603072;-0.3297558;1.06255;0;2.5;-0.08450428;2.202641;
637945187228595560;869.5278;3;3;1.5;1.1;2;1399;1.07219442458899;0.6427875;2.266045;0.3202353;2.002568;-0.3420197;0.5603072;-0.3297558;1.06255;
637945187235597218;870.2274;3;3;1.5;1.1;2;700;2.14285714285714;-0.8660251;0.9999995;-0.7254284;1.468287;0.6427875;2.266045;0.3202353;2.002568;
637945187242588866;870.9271;3;3;1.5;1.1;2;700;2.14285714285714;0.9848077;1.673648;0.7050687;1.749495;-0.8660251;0.9999995;-0.7254284;1.468287;
637945187248590280;871.5269;3;3;1.5;1.1;2;600;2.5;-0.9848078;1.673648;-0.5613072;1.798086;0.9848077;1.673648;0.7050687;1.749495;
637945187255591928;872.2265;3;3;1.5;1.1;2;700;2.14285714285714;0.8660256;1;0.5926949;1.293465;-0.9848078;1.673648;-0.5613072;1.798086;
637945187262583593;872.926;3;3;1.5;1.1;2;699;2.14592274678112;-0.6427882;2.266044;-0.4026553;2.083982;0.8660256;1;0.5926949;1.293465;
637945187269579232;873.6257;3;3;1.5;1.1;2;700;2.14285714285714;0.3420205;0.5603075;0.1130088;1.034222;-0.6427882;2.266044;-0.4026553;2.083982;
637945187285875880;875.2625;3;3;2;0.6;1.8;837;2.389486260454;-0.3078177;0.6542765;-0.3815755;0.9434605;0;2.4;0.03150951;2.27844;
637945187293567693;876.0245;3;3;2;0.6;1.8;762;2.6246719160105;0.5785087;2.18944;0.5692521;2.042566;-0.3078177;0.6542765;-0.3815755;0.9434605;
637945187301559579;876.8242;3;3;2;0.6;1.8;800;2.5;-0.7794226;1.05;-0.7740248;1.258231;0.5785087;2.18944;0.5692521;2.042566;
637945187308561223;877.524;3;3;2;0.6;1.8;700;2.85714285714286;0.8863269;1.656283;0.7660795;1.691849;-0.7794226;1.05;-0.7740248;1.258231;
637945187316563109;878.3237;3;3;2;0.6;1.8;800;2.5;-0.8863271;1.656283;-0.6274143;1.740005;0.8863269;1.656283;0.7660795;1.691849;
637945187324554989;879.1234;3;3;2;0.6;1.8;800;2.5;0.779423;1.05;0.7268751;1.292147;-0.8863271;1.656283;-0.6274143;1.740005;
637945187331546637;879.8228;3;3;2;0.6;1.8;700;2.85714285714286;-0.5785094;2.18944;-0.5664452;2.161111;0.779423;1.05;0.7268751;1.292147;
637945187349660904;881.6333;3;3;2;0.6;1.8;1810;1.10497237569061;0.3078185;0.6542768;0.299998;0.9106328;-0.5785094;2.18944;-0.5664452;2.161111;
637945187371646083;883.8324;3;3;4;0.1;1.4;1100;3.63636363636364;-0.2394138;0.8422151;-0.1941804;0.856483;0;2.2;-0.04889379;2.197069;
637945187389640323;885.6313;3;3;4;0.1;1.4;1799;2.22345747637576;0.4499513;2.036231;0.4634594;2.031539;-0.2394138;0.8422151;-0.1941804;0.856483;
637945187401633148;886.8307;3;3;4;0.1;1.4;1199;3.33611342785655;-0.6062176;1.15;-0.6040748;1.184983;0.4499513;2.036231;0.4634594;2.031539;
637945187413625974;888.0302;3;3;4;0.1;1.4;1199;3.33611342785655;0.6893654;1.621554;0.6739837;1.626703;-0.6062176;1.15;-0.6040748;1.184983;
637945187423618332;889.0298;3;3;4;0.1;1.4;1000;4;-0.6893655;1.621553;-0.6712813;1.612748;0.6893654;1.621554;0.6739837;1.626703;
637945187435621154;890.2294;3;3;4;0.1;1.4;1200;3.33333333333333;0.6062179;1.15;0.5945033;1.192961;-0.6893655;1.621553;-0.6712813;1.612748;
637945187450614685;891.7284;3;3;4;0.1;1.4;1499;2.66844563042028;-0.4499517;2.036231;-0.4174947;2.02664;0.6062179;1.15;0.5945033;1.192961;
637945187487593397;895.4268;3;3;4;0.1;1.4;3698;1.08166576527853;0.2394144;0.8422153;0.2305119;0.8787525;-0.4499517;2.036231;-0.4174947;2.02664;
637945187503697188;897.037;3;3;2.5;0.3;1.4;811;3.0826140567201;-0.2394138;0.8422151;-0.1902662;0.9140935;0;2.2;-0.03946638;2.164176;
637945187510738849;897.7413;3;3;2.5;0.3;1.4;704;3.55113636363636;0.4499513;2.036231;0.5038354;2.057488;-0.2394138;0.8422151;-0.1902662;0.9140935;
637945187516690250;898.3367;3;3;2.5;0.3;1.4;595;4.20168067226891;-0.6062176;1.15;-0.695967;1.222791;0.4499513;2.036231;0.5038354;2.057488;
637945187531683782;899.836;3;3;2.5;0.3;1.4;1499;1.66777851901268;0.6893654;1.621554;0.540574;1.627878;-0.6062176;1.15;-0.695967;1.222791;
637945187540685903;900.7357;3;3;2.5;0.3;1.4;900;2.77777777777778;-0.6893655;1.621553;-0.5663368;1.680272;0.6893654;1.621554;0.540574;1.627878;
637945187547787578;901.4462;3;3;2.5;0.3;1.4;711;3.51617440225035;0.6062179;1.15;0.6197732;1.22527;-0.6893655;1.621553;-0.5663368;1.680272;
637945187555779458;902.2458;3;3;2.5;0.3;1.4;800;3.125;-0.4499517;2.036231;-0.4255005;2.08638;0.6062179;1.15;0.6197732;1.22527;
637945187563776376;903.0454;3;3;2.5;0.3;1.4;800;3.125;0.2394144;0.8422153;0.300737;0.9391831;-0.4499517;2.036231;-0.4255005;2.08638;
637945187611755463;907.8433;3;3;4.5;0.1;2.2;3698;1.21687398593835;-0.3762217;0.4663379;-0.3674631;0.4757388;0;2.6;0.02304725;2.583779;
637945187625758158;909.2428;3;3;4.5;0.1;2.2;1399;3.21658327376698;0.7070663;2.342649;0.6663111;2.348541;-0.3762217;0.4663379;-0.3674631;0.4757388;
637945187646741690;911.3417;3;3;4.5;0.1;2.2;2099;2.14387803716055;-0.9526277;0.9499994;-0.9095513;0.9407142;0.7070663;2.342649;0.6663111;2.348541;
637945187659732345;912.6412;3;3;4.5;0.1;2.2;1299;3.46420323325635;1.083289;1.691013;1.042582;1.696279;-0.9526277;0.9499994;-0.9095513;0.9407142;
637945187675843637;914.2513;3;3;4.5;0.1;2.2;1610;2.79503105590062;-1.083289;1.691012;-1.048066;1.70993;1.083289;1.691013;1.042582;1.696279;
637945187697828698;916.4506;3;3;4.5;0.1;2.2;2199;2.04638472032742;0.9526281;0.9500003;0.9089302;0.9720691;-1.083289;1.691012;-1.048066;1.70993;
637945187719823871;918.6494;3;3;4.5;0.1;2.2;2199;2.04638472032742;-0.7070671;2.342648;-0.6860089;2.321507;0.9526281;0.9500003;0.9089302;0.9720691;
637945187746810230;921.3482;3;3;4.5;0.1;2.2;2699;1.66728417932568;0.3762226;0.4663382;0.4057483;0.4507402;-0.7070671;2.342648;-0.6860089;2.321507;
637945189235559639;1070.224;3;4;4;0.1;1.4;1499;2.66844563042028;-0.2394138;0.8422151;-0.2504153;0.8860612;0;2.2;0.01306191;2.186122;
637945189246562229;1071.323;3;4;4;0.1;1.4;1100;3.63636363636364;0.4499513;2.036231;0.4484841;2.012787;-0.2394138;0.8422151;-0.2504153;0.8860612;
637945189269547645;1073.622;3;4;4;0.1;1.4;2299;1.73988690735102;-0.6062176;1.15;-0.5649492;1.164908;0.4499513;2.036231;0.4484841;2.012787;
637945189289532353;1075.621;3;4;4;0.1;1.4;1999;2.00100050025012;0.6893654;1.621554;0.6413094;1.616549;-0.6062176;1.15;-0.5649492;1.164908;
637945189300534937;1076.72;3;4;4;0.1;1.4;1099;3.63967242948135;-0.6893655;1.621553;-0.6566082;1.586579;0.6893654;1.621554;0.6413094;1.616549;
637945189316528711;1078.32;3;4;4;0.1;1.4;1599;2.50156347717323;0.6062179;1.15;0.5767019;1.164516;-0.6893655;1.621553;-0.6566082;1.586579;
637945189328521539;1079.519;3;4;4;0.1;1.4;1200;3.33333333333333;-0.4499517;2.036231;-0.4231935;2.058043;0.6062179;1.15;0.5767019;1.164516;
637945189340514363;1080.719;3;4;4;0.1;1.4;1199;3.33611342785655;0.2394144;0.8422153;0.2281258;0.858361;-0.4499517;2.036231;-0.4231935;2.058043;
637945189376612866;1084.328;3;4;2.5;0.3;1.4;2110;1.18483412322275;-0.2394138;0.8422151;-0.2029328;0.9832125;0;2.2;0.02860768;2.171379;
637945189385604985;1085.228;3;4;2.5;0.3;1.4;900;2.77777777777778;0.4499513;2.036231;0.4129897;1.966105;-0.2394138;0.8422151;-0.2029328;0.9832125;
637945189411596161;1087.827;3;4;2.5;0.3;1.4;2599;0.961908426317814;-0.6062176;1.15;-0.5539218;1.268959;0.4499513;2.036231;0.4129897;1.966105;
637945189422585300;1088.926;3;4;2.5;0.3;1.4;1099;2.27479526842584;0.6893654;1.621554;0.6932471;1.645951;-0.6062176;1.15;-0.5539218;1.268959;
637945189432587657;1089.925;3;4;2.5;0.3;1.4;999;2.5025025025025;-0.6893655;1.621553;-0.576725;1.634956;0.6893654;1.621554;0.6932471;1.645951;
637945189441579772;1090.825;3;4;2.5;0.3;1.4;900;2.77777777777778;0.6062179;1.15;0.6066437;1.179678;-0.6893655;1.621553;-0.576725;1.634956;
637945189451572129;1091.825;3;4;2.5;0.3;1.4;1000;2.5;-0.4499517;2.036231;-0.4879649;1.984018;0.6062179;1.15;0.6066437;1.179678;
637945189461574485;1092.824;3;4;2.5;0.3;1.4;1000;2.5;0.2394144;0.8422153;0.2935876;0.9348103;-0.4499517;2.036231;-0.4879649;1.984018;
637945189486562405;1095.323;3;4;2;0.6;1.8;1699;1.17716303708064;-0.3078177;0.6542765;-0.3001536;0.8401968;0;2.4;0.06209154;2.275107;
637945189494554287;1096.123;3;4;2;0.6;1.8;800;2.5;0.5785087;2.18944;0.5713153;2.165822;-0.3078177;0.6542765;-0.3001536;0.8401968;
637945189503556408;1097.022;3;4;2;0.6;1.8;900;2.22222222222222;-0.7794226;1.05;-0.6802663;1.208928;0.5785087;2.18944;0.5713153;2.165822;
637945189510548057;1097.722;3;4;2;0.6;1.8;700;2.85714285714286;0.8863269;1.656283;0.6201302;1.704588;-0.7794226;1.05;-0.6802663;1.208928;
637945189518659965;1098.533;3;4;2;0.6;1.8;811;2.46609124537608;-0.8863271;1.656283;-0.8341799;1.716388;0.8863269;1.656283;0.6201302;1.704588;
637945189526651850;1099.332;3;4;2;0.6;1.8;800;2.5;0.779423;1.05;0.8422562;1.195556;-0.8863271;1.656283;-0.8341799;1.716388;
637945189535643968;1100.232;3;4;2;0.6;1.8;900;2.22222222222222;-0.5785094;2.18944;-0.4829313;2.179967;0.779423;1.05;0.8422562;1.195556;
637945189542645618;1100.931;3;4;2;0.6;1.8;700;2.85714285714286;0.3078185;0.6542768;0.3031033;0.9196786;-0.5785094;2.18944;-0.4829313;2.179967;
637945189581624799;1104.83;3;4;4.5;0.1;2.2;2698;1.66790214974055;-0.3762217;0.4663379;-0.3702579;0.5035301;0;2.6;0.01409164;2.561024;
637945189596728358;1106.34;3;4;4.5;0.1;2.2;1511;2.97816015883521;0.7070663;2.342649;0.7069644;2.307456;-0.3762217;0.4663379;-0.3702579;0.5035301;
637945189616723065;1108.339;3;4;4.5;0.1;2.2;1999;2.25112556278139;-0.9526277;0.9499994;-0.9230489;0.9573761;0.7070663;2.342649;0.7069644;2.307456;
637945189636707773;1110.338;3;4;4.5;0.1;2.2;1999;2.25112556278139;1.083289;1.691013;1.055773;1.695374;-0.9526277;0.9499994;-0.9230489;0.9573761;
637945189651711307;1111.838;3;4;4.5;0.1;2.2;1499;3.00200133422282;-1.083289;1.691012;-1.096832;1.720029;1.083289;1.691013;1.055773;1.695374;
637945189673956549;1114.07;3;4;4.5;0.1;2.2;2233;2.01522615315719;0.9526281;0.9500003;0.9030928;0.9438698;-1.083289;1.691012;-1.096832;1.720029;
637945189698682373;1116.535;3;4;4.5;0.1;2.2;2465;1.82555780933063;-0.7070671;2.342648;-0.6941845;2.33898;0.9526281;0.9500003;0.9030928;0.9438698;
637945189714676144;1118.135;3;4;4.5;0.1;2.2;1599;2.81425891181989;0.3762226;0.4663382;0.3862979;0.4408303;-0.7070671;2.342648;-0.6941845;2.33898;
637945189740772287;1120.744;3;4;3.5;0.2;2;1510;2.31788079470199;-0.3420197;0.5603072;-0.3474888;0.6345555;0;2.5;0.01628042;2.475145;
637945189759771469;1122.644;3;4;3.5;0.2;2;1899;1.84307530279094;0.6427875;2.266045;0.6347808;2.220196;-0.3420197;0.5603072;-0.3474888;0.6345555;
637945189770764058;1123.743;3;4;3.5;0.2;2;1099;3.18471337579618;-0.8660251;0.9999995;-0.8148487;1.044985;0.6427875;2.266045;0.6347808;2.220196;
637945189781756648;1124.843;3;4;3.5;0.2;2;1099;3.18471337579618;0.9848077;1.673648;0.952495;1.687073;-0.8660251;0.9999995;-0.8148487;1.044985;
637945189798750695;1126.542;3;4;3.5;0.2;2;1699;2.06003531489111;-0.9848078;1.673648;-0.9639527;1.616718;0.9848077;1.673648;0.952495;1.687073;
637945189810746361;1127.741;3;4;3.5;0.2;2;1199;2.91909924937448;0.8660256;1;0.8752778;1.056523;-0.9848078;1.673648;-0.9639527;1.616718;
637945189832733272;1129.941;3;4;3.5;0.2;2;2199;1.59163256025466;-0.6427882;2.266044;-0.5964657;2.264108;0.8660256;1;0.8752778;1.056523;
637945189846726569;1131.34;3;4;3.5;0.2;2;1399;2.50178699070765;0.3420205;0.5603075;0.3451822;0.5852689;-0.6427882;2.266044;-0.5964657;2.264108;
637945189862720336;1132.939;3;4;1.5;1.1;2;800;1.875;-0.3420197;0.5603072;-0.1873762;0.9873465;0;2.5;0.078729;2.303619;
637945189870832247;1133.75;3;4;1.5;1.1;2;811;1.84956843403206;0.6427875;2.266045;0.4951487;2.13239;-0.3420197;0.5603072;-0.1873762;0.9873465;
637945189877823893;1134.449;3;4;1.5;1.1;2;700;2.14285714285714;-0.8660251;0.9999995;-0.746451;1.363184;0.6427875;2.266045;0.4951487;2.13239;
637945189885825780;1135.249;3;4;1.5;1.1;2;799;1.87734668335419;0.9848077;1.673648;0.7024558;1.834129;-0.8660251;0.9999995;-0.746451;1.363184;
637945189892817428;1135.949;3;4;1.5;1.1;2;700;2.14285714285714;-0.9848078;1.673648;-0.7653132;1.878316;0.9848077;1.673648;0.7024558;1.834129;
637945189900819311;1136.749;3;4;1.5;1.1;2;800;1.875;0.8660256;1;0.8118353;1.413049;-0.9848078;1.673648;-0.7653132;1.878316;
637945189908811195;1137.548;3;4;1.5;1.1;2;800;1.875;-0.6427882;2.266044;-0.4667993;2.154026;0.8660256;1;0.8118353;1.413049;
637945189915812842;1138.248;3;4;1.5;1.1;2;700;2.14285714285714;0.3420205;0.5603075;0.2372802;1.038009;-0.6427882;2.266044;-0.4667993;2.154026;
637945189953791789;1142.046;3;4;3;0.2;1.4;1199;2.50208507089241;-0.2394138;0.8422151;-0.2799232;0.9335316;0;2.2;-0.03327447;2.184957;
637945189963784143;1143.045;3;4;3;0.2;1.4;1000;3;0.4499513;2.036231;0.4804406;2.062089;-0.2394138;0.8422151;-0.2799232;0.9335316;
637945189974786735;1144.145;3;4;3;0.2;1.4;1099;2.72975432211101;-0.6062176;1.15;-0.5995908;1.162396;0.4499513;2.036231;0.4804406;2.062089;
637945189984779090;1145.144;3;4;3;0.2;1.4;1000;3;0.6893654;1.621554;0.6187246;1.604557;-0.6062176;1.15;-0.5995908;1.162396;
637945190006774267;1147.343;3;4;3;0.2;1.4;2199;1.36425648021828;-0.6893655;1.621553;-0.7254891;1.65659;0.6893654;1.621554;0.6187246;1.604557;
637945190028869475;1149.553;3;4;3;0.2;1.4;2210;1.35746606334842;0.6062179;1.15;0.5276905;1.170614;-0.6893655;1.621553;-0.7254891;1.65659;
637945190037861593;1150.453;3;4;3;0.2;1.4;900;3.33333333333333;-0.4499517;2.036231;-0.4564612;2.004009;0.6062179;1.15;0.5276905;1.170614;
637945190046863708;1151.353;3;4;3;0.2;1.4;900;3.33333333333333;0.2394144;0.8422153;0.2861952;0.8382801;-0.4499517;2.036231;-0.4564612;2.004009;
637945190999202369;1246.586;3;5;2.5;0.3;1.4;700;3.57142857142857;-0.2394138;0.8422151;-0.188287;0.9683145;0;2.2;-0.04226373;2.234237;
637945191007204253;1247.386;3;5;2.5;0.3;1.4;800;3.125;0.4499513;2.036231;0.4353508;2.065136;-0.2394138;0.8422151;-0.188287;0.9683145;
637945191015196135;1248.186;3;5;2.5;0.3;1.4;800;3.125;-0.6062176;1.15;-0.6827121;1.068602;0.4499513;2.036231;0.4353508;2.065136;
637945191023198021;1248.985;3;5;2.5;0.3;1.4;800;3.125;0.6893654;1.621554;0.6495464;1.617905;-0.6062176;1.15;-0.6827121;1.068602;
637945191030189667;1249.685;3;5;2.5;0.3;1.4;700;3.57142857142857;-0.6893655;1.621553;-0.6056542;1.607623;0.6893654;1.621554;0.6495464;1.617905;
637945191038191553;1250.484;3;5;2.5;0.3;1.4;800;3.125;0.6062179;1.15;0.6916305;1.213331;-0.6893655;1.621553;-0.6056542;1.607623;
637945191046183437;1251.284;3;5;2.5;0.3;1.4;800;3.125;-0.4499517;2.036231;-0.5734726;2.041777;0.6062179;1.15;0.6916305;1.213331;
637945191055175554;1252.184;3;5;2.5;0.3;1.4;900;2.77777777777778;0.2394144;0.8422153;0.1729085;0.9125533;-0.4499517;2.036231;-0.5734726;2.041777;
637945191072169558;1253.883;3;5;2;0.6;1.8;900;2.22222222222222;-0.3078177;0.6542765;-0.2294564;0.9151126;0;2.4;0.08318499;2.280957;
637945191093274529;1255.993;3;5;2;0.6;1.8;2110;0.947867298578199;0.5785087;2.18944;0.3714414;2.089097;-0.3078177;0.6542765;-0.2294564;0.9151126;
637945191102266648;1256.892;3;5;2;0.6;1.8;899;2.22469410456062;-0.7794226;1.05;-0.624517;1.173313;0.5785087;2.18944;0.3714414;2.089097;
637945191109268297;1257.592;3;5;2;0.6;1.8;700;2.85714285714286;0.8863269;1.656283;0.7387694;1.762327;-0.7794226;1.05;-0.624517;1.173313;
637945191117260181;1258.392;3;5;2;0.6;1.8;799;2.50312891113892;-0.8863271;1.656283;-0.8009098;1.727697;0.8863269;1.656283;0.7387694;1.762327;
637945191127252526;1259.391;3;5;2;0.6;1.8;1000;2;0.779423;1.05;0.8087301;1.275245;-0.8863271;1.656283;-0.8009098;1.727697;
637945191134254183;1260.091;3;5;2;0.6;1.8;700;2.85714285714286;-0.5785094;2.18944;-0.4419594;2.258727;0.779423;1.05;0.8087301;1.275245;
637945191142256066;1260.891;3;5;2;0.6;1.8;800;2.5;0.3078185;0.6542768;0.1490462;0.8356702;-0.5785094;2.18944;-0.4419594;2.258727;
637945191164241246;1263.09;3;5;3;0.2;1.4;1199;2.50208507089241;-0.2394138;0.8422151;-0.1927154;0.9284146;0;2.2;-0.07078424;2.246038;
637945191181235243;1264.789;3;5;3;0.2;1.4;1699;1.76574455562095;0.4499513;2.036231;0.3996031;1.995243;-0.2394138;0.8422151;-0.1927154;0.9284146;
637945191192337865;1265.9;3;5;3;0.2;1.4;1111;2.7002700270027;-0.6062176;1.15;-0.5642523;1.204498;0.4499513;2.036231;0.3996031;1.995243;
637945191201329977;1266.799;3;5;3;0.2;1.4;900;3.33333333333333;0.6893654;1.621554;0.6287825;1.64888;-0.6062176;1.15;-0.5642523;1.204498;
637945191210332104;1267.699;3;5;3;0.2;1.4;900;3.33333333333333;-0.6893655;1.621553;-0.6361032;1.657885;0.6893654;1.621554;0.6287825;1.64888;
637945191218323986;1268.498;3;5;3;0.2;1.4;800;3.75;0.6062179;1.15;0.5956663;1.146903;-0.6893655;1.621553;-0.6361032;1.657885;
637945191230316810;1269.698;3;5;3;0.2;1.4;1199;2.50208507089241;-0.4499517;2.036231;-0.3649723;2.03223;0.6062179;1.15;0.5956663;1.146903;
637945191239323980;1270.597;3;5;3;0.2;1.4;900;3.33333333333333;0.2394144;0.8422153;0.1578881;0.8628911;-0.4499517;2.036231;-0.3649723;2.03223;
637945191259308906;1272.597;3;5;3.5;0.2;2;1000;3.5;-0.3420197;0.5603072;-0.3490873;0.6171134;0;2.5;0.03276238;2.462557;
637945191268311026;1273.496;3;5;3.5;0.2;2;899;3.89321468298109;0.6427875;2.266045;0.6505143;2.208732;-0.3420197;0.5603072;-0.3490873;0.6171134;
637945191278303400;1274.495;3;5;3.5;0.2;2;999;3.5035035035035;-0.8660251;0.9999995;-0.782473;1.048522;0.6427875;2.266045;0.6505143;2.208732;
637945191289294549;1275.595;3;5;3.5;0.2;2;1100;3.18181818181818;0.9848077;1.673648;0.9344917;1.676384;-0.8660251;0.9999995;-0.782473;1.048522;
637945191298288842;1276.495;3;5;3.5;0.2;2;899;3.89321468298109;-0.9848078;1.673648;-0.9092329;1.691747;0.9848077;1.673648;0.9344917;1.676384;
637945191307291891;1277.394;3;5;3.5;0.2;2;900;3.88888888888889;0.8660256;1;0.8464454;1.026794;-0.9848078;1.673648;-0.9092329;1.691747;
637945191317392019;1278.405;3;5;3.5;0.2;2;1010;3.46534653465347;-0.6427882;2.266044;-0.5970098;2.234653;0.8660256;1;0.8464454;1.026794;
637945191326395771;1279.304;3;5;3.5;0.2;2;900;3.88888888888889;0.3420205;0.5603075;0.3178626;0.6226333;-0.6427882;2.266044;-0.5970098;2.234653;
637945191347380713;1281.403;3;5;4.5;0.1;2.2;1071;4.20168067226891;-0.3762217;0.4663379;-0.3983371;0.4862486;0;2.6;0.04886441;2.603398;
637945191357373071;1282.403;3;5;4.5;0.1;2.2;1000;4.5;0.7070663;2.342649;0.7260785;2.324106;-0.3762217;0.4663379;-0.3983371;0.4862486;
637945191380368485;1284.702;3;5;4.5;0.1;2.2;2299;1.9573727707699;-0.9526277;0.9499994;-0.9322019;0.9630424;0.7070663;2.342649;0.7260785;2.324106;
637945191397362490;1286.401;3;5;4.5;0.1;2.2;1699;2.64861683343143;1.083289;1.691013;1.091104;1.712569;-0.9526277;0.9499994;-0.9322019;0.9630424;
637945191407354843;1287.401;3;5;4.5;0.1;2.2;1000;4.5;-1.083289;1.691012;-1.089491;1.695992;1.083289;1.691013;1.091104;1.712569;
637945191430340256;1289.7;3;5;4.5;0.1;2.2;2299;1.9573727707699;0.9526281;0.9500003;0.9120421;0.9354849;-1.083289;1.691012;-1.089491;1.695992;
637945191443333318;1290.999;3;5;4.5;0.1;2.2;1299;3.46420323325635;-0.7070671;2.342648;-0.7433538;2.373003;0.9526281;0.9500003;0.9120421;0.9354849;
637945191459327085;1292.598;3;5;4.5;0.1;2.2;1599;2.81425891181989;0.3762226;0.4663382;0.3752884;0.5097582;-0.7070671;2.342648;-0.7433538;2.373003;
637945191474330618;1294.098;3;5;1.5;1.1;2;700;2.14285714285714;-0.3420197;0.5603072;-0.219103;0.9559034;0;2.5;-0.04369048;2.297479;
637945191480432059;1294.708;3;5;1.5;1.1;2;611;2.45499181669394;0.6427875;2.266045;0.4479507;2.055858;-0.3420197;0.5603072;-0.219103;0.9559034;
637945191487433704;1295.408;3;5;1.5;1.1;2;700;2.14285714285714;-0.8660251;0.9999995;-0.6340749;1.250105;0.6427875;2.266045;0.4479507;2.055858;
637945191493425117;1296.008;3;5;1.5;1.1;2;600;2.5;0.9848077;1.673648;0.7055;1.773646;-0.8660251;0.9999995;-0.6340749;1.250105;
637945191508418649;1297.507;3;5;1.5;1.1;2;1499;1.00066711140761;-0.9848078;1.673648;-0.4971933;1.718237;0.9848077;1.673648;0.7055;1.773646;
637945191516420533;1298.307;3;5;1.5;1.1;2;800;1.875;0.8660256;1;0.5461286;1.279324;-0.9848078;1.673648;-0.4971933;1.718237;
637945191522411945;1298.906;3;5;1.5;1.1;2;600;2.5;-0.6427882;2.266044;-0.5421976;2.112928;0.8660256;1;0.5461286;1.279324;
637945191529413593;1299.606;3;5;1.5;1.1;2;700;2.14285714285714;0.3420205;0.5603075;0.2341141;1.093073;-0.6427882;2.266044;-0.5421976;2.112928;
637945191560390898;1302.705;3;5;4;0.1;1.4;1499;2.66844563042028;-0.2394138;0.8422151;-0.2603297;0.8619953;0;2.2;0.001518326;2.180824;
637945191572393718;1303.904;3;5;4;0.1;1.4;1199;3.33611342785655;0.4499513;2.036231;0.4034806;2.025253;-0.2394138;0.8422151;-0.2603297;0.8619953;
637945191588380693;1305.503;3;5;4;0.1;1.4;1599;2.50156347717323;-0.6062176;1.15;-0.5872021;1.191729;0.4499513;2.036231;0.4034806;2.025253;
637945191619367992;1308.602;3;5;4;0.1;1.4;3099;1.29073894804776;0.6893654;1.621554;0.6659515;1.641352;-0.6062176;1.15;-0.5872021;1.191729;
637945191637359838;1310.401;3;5;4;0.1;1.4;1799;2.22345747637576;-0.6893655;1.621553;-0.6701688;1.612238;0.6893654;1.621554;0.6659515;1.641352;
637945191648462461;1311.512;3;5;4;0.1;1.4;1111;3.6003600360036;0.6062179;1.15;0.6244541;1.15618;-0.6893655;1.621553;-0.6701688;1.612238;
637945191663455999;1313.011;3;5;4;0.1;1.4;1499;2.66844563042028;-0.4499517;2.036231;-0.4461126;2.012264;0.6062179;1.15;0.6244541;1.15618;
637945191678449526;1314.51;3;5;4;0.1;1.4;1499;2.66844563042028;0.2394144;0.8422153;0.2325634;0.8859717;-0.4499517;2.036231;-0.4461126;2.012264;
637945192518742494;1398.538;3;6;4.5;0.1;2.2;1465;3.07167235494881;-0.3762217;0.4663379;-0.3673557;0.5128849;0;2.6;0.04283339;2.578692;
637945192535736497;1400.237;3;6;4.5;0.1;2.2;1699;2.64861683343143;0.7070663;2.342649;0.6691371;2.318325;-0.3762217;0.4663379;-0.3673557;0.5128849;
637945192555721205;1402.236;3;6;4.5;0.1;2.2;1999;2.25112556278139;-0.9526277;0.9499994;-0.9463344;0.9988584;0.7070663;2.342649;0.6691371;2.318325;
637945192570714736;1403.735;3;6;4.5;0.1;2.2;1499;3.00200133422282;1.083289;1.691013;1.048403;1.695817;-0.9526277;0.9499994;-0.9463344;0.9988584;
637945192593820179;1406.046;3;6;4.5;0.1;2.2;2310;1.94805194805195;-1.083289;1.691012;-1.070295;1.665321;1.083289;1.691013;1.048403;1.695817;
637945192606808338;1407.345;3;6;4.5;0.1;2.2;1299;3.46420323325635;0.9526281;0.9500003;0.9364328;0.9746103;-1.083289;1.691012;-1.070295;1.665321;
637945192625805151;1409.244;3;6;4.5;0.1;2.2;1899;2.3696682464455;-0.7070671;2.342648;-0.6730012;2.309804;0.9526281;0.9500003;0.9364328;0.9746103;
637945192643788827;1411.043;3;6;4.5;0.1;2.2;1799;2.50138966092273;0.3762226;0.4663382;0.3775321;0.48261;-0.7070671;2.342648;-0.6730012;2.309804;
637945192660781564;1412.742;3;6;2.5;0.3;1.4;900;2.77777777777778;-0.2394138;0.8422151;-0.1557482;0.8537507;0;2.2;-0.005590841;2.216588;
637945192667783214;1413.442;3;6;2.5;0.3;1.4;700;3.57142857142857;0.4499513;2.036231;0.4340287;2.022335;-0.2394138;0.8422151;-0.1557482;0.8537507;
637945192675775098;1414.242;3;6;2.5;0.3;1.4;800;3.125;-0.6062176;1.15;-0.6445965;1.112406;0.4499513;2.036231;0.4340287;2.022335;
637945192681776513;1414.842;3;6;2.5;0.3;1.4;600;4.16666666666667;0.6893654;1.621554;0.6764902;1.590371;-0.6062176;1.15;-0.6445965;1.112406;
637945192687767923;1415.441;3;6;2.5;0.3;1.4;600;4.16666666666667;-0.6893655;1.621553;-0.5563675;1.638165;0.6893654;1.621554;0.6764902;1.590371;
637945192693979387;1416.07;3;6;2.5;0.3;1.4;628;3.98089171974522;0.6062179;1.15;0.4753452;1.216807;-0.6893655;1.621553;-0.5563675;1.638165;
637945192700770985;1416.741;3;6;2.5;0.3;1.4;671;3.725782414307;-0.4499517;2.036231;-0.4918581;1.987978;0.6062179;1.15;0.4753452;1.216807;
637945192707762631;1417.44;3;6;2.5;0.3;1.4;699;3.57653791130186;0.2394144;0.8422153;0.3474924;0.9239976;-0.4499517;2.036231;-0.4918581;1.987978;
637945192737859722;1420.45;3;6;3.5;0.2;2;2210;1.58371040723982;-0.3420197;0.5603072;-0.3613405;0.6288725;0;2.5;0.02817943;2.456945;
637945192749162386;1421.588;3;6;3.5;0.2;2;1138;3.07557117750439;0.6427875;2.266045;0.5646866;2.203753;-0.3420197;0.5603072;-0.3613405;0.6288725;
637945192759854903;1422.649;3;6;3.5;0.2;2;1061;3.29877474081056;-0.8660251;0.9999995;-0.7974506;1.068647;0.6427875;2.266045;0.5646866;2.203753;
637945192768847020;1423.549;3;6;3.5;0.2;2;899;3.89321468298109;0.9848077;1.673648;0.9752712;1.688259;-0.8660251;0.9999995;-0.7974506;1.068647;
637945192776838903;1424.348;3;6;3.5;0.2;2;800;4.375;-0.9848078;1.673648;-1.036036;1.602756;0.9848077;1.673648;0.9752712;1.688259;
637945192785841023;1425.248;3;6;3.5;0.2;2;900;3.88888888888889;0.8660256;1;0.9413167;1.005769;-0.9848078;1.673648;-1.036036;1.602756;
637945192793832906;1426.047;3;6;3.5;0.2;2;800;4.375;-0.6427882;2.266044;-0.6438239;2.208624;0.8660256;1;0.9413167;1.005769;
637945192802825026;1426.947;3;6;3.5;0.2;2;900;3.88888888888889;0.3420205;0.5603075;0.3590375;0.6132518;-0.6427882;2.266044;-0.6438239;2.208624;
637945192815828086;1428.247;3;6;1.5;1.1;2;700;2.14285714285714;-0.3420197;0.5603072;-0.2056295;0.9821769;0;2.5;0.1750535;2.131609;
637945192821819501;1428.846;3;6;1.5;1.1;2;600;2.5;0.6427875;2.266045;0.5216353;2.004879;-0.3420197;0.5603072;-0.2056295;0.9821769;
637945192827820912;1429.446;3;6;1.5;1.1;2;600;2.5;-0.8660251;0.9999995;-0.6231366;1.31638;0.6427875;2.266045;0.5216353;2.004879;
637945192834812562;1430.146;3;6;1.5;1.1;2;700;2.14285714285714;0.9848077;1.673648;0.8670863;1.651545;-0.8660251;0.9999995;-0.6231366;1.31638;
637945192840813975;1430.745;3;6;1.5;1.1;2;600;2.5;-0.9848078;1.673648;-0.5433915;1.835814;0.9848077;1.673648;0.8670863;1.651545;
637945192847815623;1431.445;3;6;1.5;1.1;2;700;2.14285714285714;0.8660256;1;0.5552889;1.236987;-0.9848078;1.673648;-0.5433915;1.835814;
637945192853807033;1432.045;3;6;1.5;1.1;2;600;2.5;-0.6427882;2.266044;-0.3480664;1.971188;0.8660256;1;0.5552889;1.236987;
637945192860798682;1432.744;3;6;1.5;1.1;2;700;2.14285714285714;0.3420205;0.5603075;0.231632;1.050753;-0.6427882;2.266044;-0.3480664;1.971188;
637945192893786454;1436.043;3;6;4;0.1;1.4;2299;1.73988690735102;-0.2394138;0.8422151;-0.2387491;0.8749287;0;2.2;0.01669779;2.222728;
637945192923103352;1438.982;3;6;4;0.1;1.4;2939;1.36100714528751;0.4499513;2.036231;0.4972313;2.02261;-0.2394138;0.8422151;-0.2387491;0.8749287;
637945192933885897;1440.052;3;6;4;0.1;1.4;1070;3.73831775700935;-0.6062176;1.15;-0.5940412;1.182446;0.4499513;2.036231;0.4972313;2.02261;
637945192942882280;1440.952;3;6;4;0.1;1.4;900;4.44444444444444;0.6893654;1.621554;0.6637701;1.599972;-0.6062176;1.15;-0.5940412;1.182446;
637945192950872565;1441.751;3;6;4;0.1;1.4;800;5;-0.6893655;1.621553;-0.7154755;1.616673;0.6893654;1.621554;0.6637701;1.599972;
637945192958874448;1442.551;3;6;4;0.1;1.4;800;5;0.6062179;1.15;0.626946;1.181942;-0.6893655;1.621553;-0.7154755;1.616673;
637945192974858216;1444.15;3;6;4;0.1;1.4;1599;2.50156347717323;-0.4499517;2.036231;-0.4625783;2.013417;0.6062179;1.15;0.626946;1.181942;
637945192991852328;1445.849;3;6;4;0.1;1.4;1699;2.35432607416127;0.2394144;0.8422153;0.2233728;0.8840804;-0.4499517;2.036231;-0.4625783;2.013417;
637945193008958814;1447.56;3;6;2;0.6;1.8;1000;2;-0.3078177;0.6542765;-0.2724714;0.8168576;0;2.4;0.01133104;2.173416;
637945193014288948;1448.1;3;6;2;0.6;1.8;541;3.69685767097967;0.5785087;2.18944;0.4003404;1.948188;-0.3078177;0.6542765;-0.2724714;0.8168576;
637945193021958943;1448.859;3;6;2;0.6;1.8;759;2.63504611330698;-0.7794226;1.05;-0.7342027;1.188466;0.5785087;2.18944;0.4003404;1.948188;
637945193027950379;1449.459;3;6;2;0.6;1.8;599;3.33889816360601;0.8863269;1.656283;0.6973109;1.669819;-0.7794226;1.05;-0.7342027;1.188466;
637945193042939156;1450.958;3;6;2;0.6;1.8;1499;1.33422281521014;-0.8863271;1.656283;-0.6411768;1.710901;0.8863269;1.656283;0.6973109;1.669819;
637945193049940389;1451.658;3;6;2;0.6;1.8;700;2.85714285714286;0.779423;1.05;0.6411734;1.117965;-0.8863271;1.656283;-0.6411768;1.710901;
637945193057934660;1452.457;3;6;2;0.6;1.8;800;2.5;-0.5785094;2.18944;-0.5359867;2.141054;0.779423;1.05;0.6411734;1.117965;
637945193065936543;1453.257;3;6;2;0.6;1.8;800;2.5;0.3078185;0.6542768;0.2294674;0.8228152;-0.5785094;2.18944;-0.5359867;2.141054;
637945193084921017;1455.156;3;6;3;0.2;1.4;1000;3;-0.2394138;0.8422151;-0.1611979;0.8878442;0;2.2;-0.0295447;2.167758;
637945193101024809;1456.766;3;6;3;0.2;1.4;1610;1.86335403726708;0.4499513;2.036231;0.3983772;2.038311;-0.2394138;0.8422151;-0.1611979;0.8878442;
637945193111027166;1457.766;3;6;3;0.2;1.4;1000;3;-0.6062176;1.15;-0.5438253;1.19701;0.4499513;2.036231;0.3983772;2.038311;
637945193120019285;1458.666;3;6;3;0.2;1.4;900;3.33333333333333;0.6893654;1.621554;0.6709185;1.718877;-0.6062176;1.15;-0.5438253;1.19701;
637945193131011875;1459.765;3;6;3;0.2;1.4;1099;2.72975432211101;-0.6893655;1.621553;-0.6379257;1.634064;0.6893654;1.621554;0.6709185;1.718877;
637945193140014000;1460.665;3;6;3;0.2;1.4;899;3.33704115684093;0.6062179;1.15;0.6598223;1.197197;-0.6893655;1.621553;-0.6379257;1.634064;
637945193149006113;1461.564;3;6;3;0.2;1.4;900;3.33333333333333;-0.4499517;2.036231;-0.5469689;2.048801;0.6062179;1.15;0.6598223;1.197197;
637945193159008468;1462.564;3;6;3;0.2;1.4;1000;3;0.2394144;0.8422153;0.2073334;0.8586556;-0.4499517;2.036231;-0.5469689;2.048801;
637945194111365487;1557.797;3;7;1.5;1.1;2;800;1.875;-0.3420197;0.5603072;-0.1774519;0.9232668;0;2.5;0.01707265;2.20093;
637945194117356897;1558.397;3;7;1.5;1.1;2;600;2.5;0.6427875;2.266045;0.435434;1.950897;-0.3420197;0.5603072;-0.1774519;0.9232668;
637945194124358550;1559.097;3;7;1.5;1.1;2;700;2.14285714285714;-0.8660251;0.9999995;-0.6680927;1.39531;0.6427875;2.266045;0.435434;1.950897;
637945194131350196;1559.797;3;7;1.5;1.1;2;700;2.14285714285714;0.9848077;1.673648;0.7472459;1.743556;-0.8660251;0.9999995;-0.6680927;1.39531;
637945194137350358;1560.396;3;7;1.5;1.1;2;600;2.5;-0.9848078;1.673648;-0.636292;1.700749;0.9848077;1.673648;0.7472459;1.743556;
637945194144346938;1561.096;3;7;1.5;1.1;2;700;2.14285714285714;0.8660256;1;0.6132237;1.295887;-0.9848078;1.673648;-0.636292;1.700749;
637945194151348590;1561.796;3;7;1.5;1.1;2;700;2.14285714285714;-0.6427882;2.266044;-0.489703;2.035442;0.8660256;1;0.6132237;1.295887;
637945194158340236;1562.495;3;7;1.5;1.1;2;700;2.14285714285714;0.3420205;0.5603075;0.3768946;1.082638;-0.6427882;2.266044;-0.489703;2.035442;
637945194204318707;1567.093;3;7;4.5;0.1;2.2;3269;1.37656775772407;-0.3762217;0.4663379;-0.3431988;0.4911;0;2.6;0.002745025;2.550066;
637945194218421417;1568.504;3;7;4.5;0.1;2.2;1411;3.18922749822821;0.7070663;2.342649;0.7135056;2.310265;-0.3762217;0.4663379;-0.3431988;0.4911;
637945194243408333;1571.002;3;7;4.5;0.1;2.2;2499;1.80072028811525;-0.9526277;0.9499994;-0.9261312;0.9409109;0.7070663;2.342649;0.7135056;2.310265;
637945194255521188;1572.213;3;7;4.5;0.1;2.2;1211;3.7159372419488;1.083289;1.691013;1.0901;1.702258;-0.9526277;0.9499994;-0.9261312;0.9409109;
637945194275505898;1574.212;3;7;4.5;0.1;2.2;1999;2.25112556278139;-1.083289;1.691012;-1.047091;1.677673;1.083289;1.691013;1.0901;1.702258;
637945194291499660;1575.811;3;7;4.5;0.1;2.2;1599;2.81425891181989;0.9526281;0.9500003;0.9197984;0.9558125;-1.083289;1.691012;-1.047091;1.677673;
637945194311494372;1577.81;3;7;4.5;0.1;2.2;1999;2.25112556278139;-0.7070671;2.342648;-0.7144922;2.350848;0.9526281;0.9500003;0.9197984;0.9558125;
637945194326487905;1579.31;3;7;4.5;0.1;2.2;1499;3.00200133422282;0.3762226;0.4663382;0.3839053;0.5153981;-0.7070671;2.342648;-0.7144922;2.350848;
637945194347482848;1581.409;3;7;3;0.2;1.4;1100;2.72727272727273;-0.2394138;0.8422151;-0.2217883;0.8612196;0;2.2;0.08835842;2.188564;
637945194355474732;1582.208;3;7;3;0.2;1.4;799;3.75469336670839;0.4499513;2.036231;0.4411578;2.054228;-0.2394138;0.8422151;-0.2217883;0.8612196;
637945194366467321;1583.308;3;7;3;0.2;1.4;1099;2.72975432211101;-0.6062176;1.15;-0.5350595;1.173344;0.4499513;2.036231;0.4411578;2.054228;
637945194376459678;1584.308;3;7;3;0.2;1.4;1000;3;0.6893654;1.621554;0.6302242;1.688389;-0.6062176;1.15;-0.5350595;1.173344;
637945194386462031;1585.307;3;7;3;0.2;1.4;999;3.003003003003;-0.6893655;1.621553;-0.6437775;1.644062;0.6893654;1.621554;0.6302242;1.688389;
637945194399565118;1586.617;3;7;3;0.2;1.4;1310;2.29007633587786;0.6062179;1.15;0.5507725;1.220901;-0.6893655;1.621553;-0.6437775;1.644062;
637945194408557234;1587.517;3;7;3;0.2;1.4;900;3.33333333333333;-0.4499517;2.036231;-0.45006;1.982869;0.6062179;1.15;0.5507725;1.220901;
637945194418559591;1588.516;3;7;3;0.2;1.4;1000;3;0.2394144;0.8422153;0.2534411;0.8938249;-0.4499517;2.036231;-0.45006;1.982869;
637945194439544535;1590.616;3;7;4;0.1;1.4;1100;3.63636363636364;-0.2394138;0.8422151;-0.2515582;0.8633986;0;2.2;-0.0002615638;2.152403;
637945194449656915;1591.626;3;7;4;0.1;1.4;1010;3.96039603960396;0.4499513;2.036231;0.4321702;2.060842;-0.2394138;0.8422151;-0.2515582;0.8633986;
637945194479638576;1594.625;3;7;4;0.1;1.4;2999;1.33377792597533;-0.6062176;1.15;-0.6053568;1.180091;0.4499513;2.036231;0.4321702;2.060842;
637945194500631936;1596.724;3;7;4;0.1;1.4;2099;1.90566936636494;0.6893654;1.621554;0.6593057;1.607667;-0.6062176;1.15;-0.6053568;1.180091;
637945194512624762;1597.923;3;7;4;0.1;1.4;1199;3.33611342785655;-0.6893655;1.621553;-0.6653321;1.614068;0.6893654;1.621554;0.6593057;1.607667;
637945194523617350;1599.023;3;7;4;0.1;1.4;1100;3.63636363636364;0.6062179;1.15;0.6100528;1.197306;-0.6893655;1.621553;-0.6653321;1.614068;
637945194539614733;1600.622;3;7;4;0.1;1.4;1599;2.50156347717323;-0.4499517;2.036231;-0.4248764;2.034421;0.6062179;1.15;0.6100528;1.197306;
637945194564603539;1603.121;3;7;4;0.1;1.4;2499;1.60064025610244;0.2394144;0.8422153;0.1977857;0.8349929;-0.4499517;2.036231;-0.4248764;2.034421;
637945194585698487;1605.231;3;7;3.5;0.2;2;1111;3.15031503150315;-0.3420197;0.5603072;-0.3943722;0.5945015;0;2.5;0.03359286;2.44672;
637945194594700601;1606.131;3;7;3.5;0.2;2;900;3.88888888888889;0.6427875;2.266045;0.6421412;2.22377;-0.3420197;0.5603072;-0.3943722;0.5945015;
637945194604692961;1607.13;3;7;3.5;0.2;2;1000;3.5;-0.8660251;0.9999995;-0.7961981;1.03858;0.6427875;2.266045;0.6421412;2.22377;
637945194612684843;1607.93;3;7;3.5;0.2;2;799;4.38047559449312;0.9848077;1.673648;0.9299076;1.704093;-0.8660251;0.9999995;-0.7961981;1.03858;
637945194621686965;1608.829;3;7;3.5;0.2;2;900;3.88888888888889;-0.9848078;1.673648;-1.01638;1.676071;0.9848077;1.673648;0.9299076;1.704093;
637945194630679083;1609.729;3;7;3.5;0.2;2;900;3.88888888888889;0.8660256;1;0.9096887;1.042863;-0.9848078;1.673648;-1.01638;1.676071;
637945194645672615;1611.228;3;7;3.5;0.2;2;1499;2.33488992661775;-0.6427882;2.266044;-0.6364454;2.202628;0.8660256;1;0.9096887;1.042863;
637945194663666853;1613.027;3;7;3.5;0.2;2;1799;1.94552529182879;0.3420205;0.5603075;0.3129088;0.6035494;-0.6427882;2.266044;-0.6364454;2.202628;
637945194680660858;1614.726;3;7;2;0.6;1.8;899;2.22469410456062;-0.3078177;0.6542765;-0.2008013;0.8079817;0;2.4;-0.007521898;2.272967;
637945194687652502;1615.426;3;7;2;0.6;1.8;700;2.85714285714286;0.5785087;2.18944;0.421442;2.033028;-0.3078177;0.6542765;-0.2008013;0.8079817;
637945194695654391;1616.226;3;7;2;0.6;1.8;800;2.5;-0.7794226;1.05;-0.7223752;1.202189;0.5785087;2.18944;0.421442;2.033028;
637945194701645800;1616.826;3;7;2;0.6;1.8;600;3.33333333333333;0.8863269;1.656283;0.6735325;1.727633;-0.7794226;1.05;-0.7223752;1.202189;
637945194708647452;1617.525;3;7;2;0.6;1.8;700;2.85714285714286;-0.8863271;1.656283;-0.8566092;1.599978;0.8863269;1.656283;0.6735325;1.727633;
637945194714648866;1618.125;3;7;2;0.6;1.8;600;3.33333333333333;0.779423;1.05;0.7630109;1.301207;-0.8863271;1.656283;-0.8566092;1.599978;
637945194721640512;1618.825;3;7;2;0.6;1.8;700;2.85714285714286;-0.5785094;2.18944;-0.4103667;2.083787;0.779423;1.05;0.7630109;1.301207;
637945194729642395;1619.625;3;7;2;0.6;1.8;800;2.5;0.3078185;0.6542768;0.1584113;0.7886721;-0.5785094;2.18944;-0.4103667;2.083787;
637945194758739248;1622.534;3;7;2.5;0.3;1.4;2099;1.19104335397808;-0.2394138;0.8422151;-0.3293573;0.9305681;0;2.2;0.03711239;2.140914;
637945194766731130;1623.334;3;7;2.5;0.3;1.4;800;3.125;0.4499513;2.036231;0.3767991;1.969691;-0.2394138;0.8422151;-0.3293573;0.9305681;
637945194773732781;1624.034;3;7;2.5;0.3;1.4;700;3.57142857142857;-0.6062176;1.15;-0.4878646;1.146085;0.4499513;2.036231;0.3767991;1.969691;
637945194780724428;1624.733;3;7;2.5;0.3;1.4;699;3.57653791130186;0.6893654;1.621554;0.5964597;1.675752;-0.6062176;1.15;-0.4878646;1.146085;
637945194788716308;1625.533;3;7;2.5;0.3;1.4;800;3.125;-0.6893655;1.621553;-0.5558035;1.667816;0.6893654;1.621554;0.5964597;1.675752;
637945194795717959;1626.233;3;7;2.5;0.3;1.4;700;3.57142857142857;0.6062179;1.15;0.6145711;1.208187;-0.6893655;1.621553;-0.5558035;1.667816;
637945194803719845;1627.032;3;7;2.5;0.3;1.4;799;3.12891113892365;-0.4499517;2.036231;-0.4272871;2.165077;0.6062179;1.15;0.6145711;1.208187;
637945194811711731;1627.832;3;7;2.5;0.3;1.4;800;3.125;0.2394144;0.8422153;0.2271451;0.9029933;-0.4499517;2.036231;-0.4272871;2.165077;
