637951502520784867;525.8459;4;0;2;0.6;1.8;1699;1.17716303708064;-0.3078177;0.6542765;-0.2407507;0.8943889;0;2.4;0.02990069;2.138124;
637951502675847979;541.3502;4;0;2;0.6;1.8;15504;0.128998968008256;0.5785087;2.18944;0.4369085;2.043847;-0.3078177;0.6542765;-0.2407507;0.8943889;
637951502691944505;542.9598;4;0;2;0.6;1.8;1610;1.24223602484472;-0.7794226;1.05;-0.6823723;1.204438;0.5785087;2.18944;0.4369085;2.043847;
637951502725938283;546.3587;4;0;2;0.6;1.8;3399;0.588408355398647;0.8863269;1.656283;0.58862;1.684391;-0.7794226;1.05;-0.6823723;1.204438;
637951502734341688;547.2054;4;0;2;0.6;1.8;847;2.36127508854782;-0.8863271;1.656283;-0.5932292;1.713694;0.8863269;1.656283;0.58862;1.684391;
637951502749928012;548.7573;4;0;2;0.6;1.8;1552;1.28865979381443;0.779423;1.05;0.6747894;1.211977;-0.8863271;1.656283;-0.5932292;1.713694;
637951502782921382;552.0558;4;0;2;0.6;1.8;3299;0.606244316459533;-0.5785094;2.18944;-0.4453562;1.931052;0.779423;1.05;0.6747894;1.211977;
637951502796026700;553.3663;4;0;2;0.6;1.8;1310;1.52671755725191;0.3078185;0.6542768;0.2824683;0.825212;-0.5785094;2.18944;-0.4453562;1.931052;
637951502920996558;565.8606;4;0;1.5;1.1;2;6997;0.214377590395884;-0.3420197;0.5603072;-0.2410664;1.075579;0;2.5;-0.01171939;2.086321;
637951502933101644;567.0714;4;0;1.5;1.1;2;1211;1.23864574731627;0.6427875;2.266045;0.4638295;1.997134;-0.3420197;0.5603072;-0.2410664;1.075579;
637951502946104400;568.3706;4;0;1.5;1.1;2;1299;1.15473441108545;-0.8660251;0.9999995;-0.5818474;1.292112;0.6427875;2.266045;0.4638295;1.997134;
637951502982093452;571.9689;4;0;1.5;1.1;2;3598;0.416898276820456;0.9848077;1.673648;0.5787937;1.653843;-0.8660251;0.9999995;-0.5818474;1.292112;
637951503008078091;574.5676;4;0;1.5;1.1;2;2599;0.577145055790689;-0.9848078;1.673648;-0.5625866;1.695841;0.9848077;1.673648;0.5787937;1.653843;
637951503019092554;575.6684;4;0;1.5;1.1;2;1101;1.36239782016349;0.8660256;1;0.7332345;1.282729;-0.9848078;1.673648;-0.5625866;1.695841;
637951503029096613;576.6679;4;0;1.5;1.1;2;1000;1.5;-0.6427882;2.266044;-0.2751645;1.887071;0.8660256;1;0.7332345;1.282729;
637951503041071465;577.8663;4;0;1.5;1.1;2;1198;1.25208681135225;0.3420205;0.5603075;0.1975119;1.017937;-0.6427882;2.266044;-0.2751645;1.887071;
637951503067172046;580.476;4;0;2.5;0.3;1.4;1399;1.78699070764832;-0.2394138;0.8422151;-0.2452528;0.9819592;0;2.2;0.0127338;2.098344;
637951503081177725;581.8758;4;0;2.5;0.3;1.4;1400;1.78571428571429;0.4499513;2.036231;0.3727081;2.011336;-0.2394138;0.8422151;-0.2452528;0.9819592;
637951503094223011;583.1799;4;0;2.5;0.3;1.4;1304;1.91717791411043;-0.6062176;1.15;-0.4888219;1.217539;0.4499513;2.036231;0.3727081;2.011336;
637951503106497982;584.4142;4;0;2.5;0.3;1.4;1234;2.0259319286872;0.6893654;1.621554;0.5575462;1.583704;-0.6062176;1.15;-0.4888219;1.217539;
637951503119163117;585.6738;4;0;2.5;0.3;1.4;1260;1.98412698412698;-0.6893655;1.621553;-0.5780596;1.611469;0.6893654;1.621554;0.5575462;1.583704;
637951503134209214;587.1785;4;0;2.5;0.3;1.4;1505;1.66112956810631;0.6062179;1.15;0.4749881;1.092449;-0.6893655;1.621553;-0.5780596;1.611469;
637951503147154465;588.4724;4;0;2.5;0.3;1.4;1294;1.93199381761978;-0.4499517;2.036231;-0.3959593;1.898836;0.6062179;1.15;0.4749881;1.092449;
637951503160259778;589.783;4;0;2.5;0.3;1.4;1311;1.906941266209;0.2394144;0.8422153;0.2429085;0.9602184;-0.4499517;2.036231;-0.3959593;1.898836;
637951503185510024;592.3135;4;0;4;0.1;1.4;1326;3.01659125188537;-0.2394138;0.8422151;-0.2565437;0.8890851;0;2.2;-0.002686873;2.155695;
637951503238241386;597.5793;4;0;4;0.1;1.4;5266;0.759589821496392;0.4499513;2.036231;0.4335544;2.005028;-0.2394138;0.8422151;-0.2565437;0.8890851;
637951503251236655;598.8784;4;0;4;0.1;1.4;1299;3.07929176289453;-0.6062176;1.15;-0.5951996;1.137376;0.4499513;2.036231;0.4335544;2.005028;
637951503328328989;606.586;4;0;4;0.1;1.4;7708;0.518941359626362;0.6893654;1.621554;0.6877638;1.643715;-0.6062176;1.15;-0.5951996;1.137376;
637951503443295588;618.0809;4;0;4;0.1;1.4;11495;0.347977381470204;-0.6893655;1.621553;-0.6641682;1.646645;0.6893654;1.621554;0.6877638;1.643715;
637951503459402118;619.6913;4;0;4;0.1;1.4;1610;2.48447204968944;0.6062179;1.15;0.5612946;1.130393;-0.6893655;1.621553;-0.6641682;1.646645;
637951503479390223;621.6904;4;0;4;0.1;1.4;1999;2.00100050025012;-0.4499517;2.036231;-0.4598192;1.997462;0.6062179;1.15;0.5612946;1.130393;
637951503553370207;629.0869;4;0;4;0.1;1.4;7396;0.540832882639265;0.2394144;0.8422153;0.2223408;0.875404;-0.4499517;2.036231;-0.4598192;1.997462;
637951503590375212;632.7852;4;0;4.5;0.1;2.2;2199;2.04638472032742;-0.3762217;0.4663379;-0.3543034;0.5093182;0;2.6;0.03690181;2.598585;
637951503607468998;634.4955;4;0;4.5;0.1;2.2;1710;2.63157894736842;0.7070663;2.342649;0.7013419;2.315981;-0.3762217;0.4663379;-0.3543034;0.5093182;
637951503625463164;636.2947;4;0;4.5;0.1;2.2;1799;2.50138966092273;-0.9526277;0.9499994;-0.9066196;0.939253;0.7070663;2.342649;0.7013419;2.315981;
637951503644460863;638.1938;4;0;4.5;0.1;2.2;1899;2.3696682464455;1.083289;1.691013;1.083832;1.668331;-0.9526277;0.9499994;-0.9066196;0.939253;
637951503697559608;643.5028;4;0;4.5;0.1;2.2;5309;0.847617253720098;-1.083289;1.691012;-1.035722;1.687664;1.083289;1.691013;1.083832;1.668331;
637951503764536759;650.1994;4;0;4.5;0.1;2.2;6697;0.671942660892937;0.9526281;0.9500003;0.9227579;0.9675335;-1.083289;1.691012;-1.035722;1.687664;
637951503780933398;651.846;4;0;4.5;0.1;2.2;1647;2.73224043715847;-0.7070671;2.342648;-0.7311941;2.321527;0.9526281;0.9500003;0.9227579;0.9675335;
637951503803532562;654.0981;4;0;4.5;0.1;2.2;2252;1.99822380106572;0.3762226;0.4663382;0.3705;0.512549;-0.7070671;2.342648;-0.7311941;2.321527;
637951503838516742;657.5961;4;0;3.5;0.2;2;1499;2.33488992661775;-0.3420197;0.5603072;-0.3632825;0.6254058;0;2.5;-0.01461766;2.464553;
637951503854623271;659.2065;4;0;3.5;0.2;2;1610;2.17391304347826;0.6427875;2.266045;0.6198128;2.206476;-0.3420197;0.5603072;-0.3632825;0.6254058;
637951503869619359;660.7061;4;0;3.5;0.2;2;1500;2.33333333333333;-0.8660251;0.9999995;-0.7894509;1.042947;0.6427875;2.266045;0.6198128;2.206476;
637951503926602452;666.403;4;0;3.5;0.2;2;5697;0.614358434263648;0.9848077;1.673648;0.9061925;1.73237;-0.8660251;0.9999995;-0.7894509;1.042947;
637951503937606912;667.5027;4;0;3.5;0.2;2;1100;3.18181818181818;-0.9848078;1.673648;-0.9735426;1.684179;0.9848077;1.673648;0.9061925;1.73237;
637951504002694426;674.0109;4;0;3.5;0.2;2;6508;0.53779963122311;0.8660256;1;0.8455696;1.028934;-0.9848078;1.673648;-0.9735426;1.684179;
637951504018687835;675.6099;4;0;3.5;0.2;2;1599;2.18886804252658;-0.6427882;2.266044;-0.5791904;2.267011;0.8660256;1;0.8455696;1.028934;
637951504039685493;677.7092;4;0;3.5;0.2;2;2099;1.66746069556932;0.3420205;0.5603075;0.2982799;0.5942267;-0.6427882;2.266044;-0.5791904;2.267011;
637951504075680084;681.3076;4;0;3;0.2;1.4;1699;1.76574455562095;-0.2394138;0.8422151;-0.2188691;0.9007791;0;2.2;0.04332418;2.129221;
637951504093667375;683.1066;4;0;3;0.2;1.4;1799;1.66759310728182;0.4499513;2.036231;0.4500666;1.997694;-0.2394138;0.8422151;-0.2188691;0.9007791;
637951504115776342;685.3167;4;0;3;0.2;1.4;2210;1.35746606334842;-0.6062176;1.15;-0.5345909;1.204128;0.4499513;2.036231;0.4500666;1.997694;
637951504147759300;688.5153;4;0;3;0.2;1.4;3199;0.937793060331354;0.6893654;1.621554;0.6468838;1.624475;-0.6062176;1.15;-0.5345909;1.204128;
637951504156812978;689.4201;4;0;3;0.2;1.4;905;3.31491712707182;-0.6893655;1.621553;-0.7258783;1.646562;0.6893654;1.621554;0.6468838;1.624475;
637951504169087949;690.6539;4;0;3;0.2;1.4;1234;2.43111831442464;0.6062179;1.15;0.6721315;1.20493;-0.6893655;1.621553;-0.7258783;1.646562;
637951504244848657;698.2216;4;0;3;0.2;1.4;7568;0.396405919661734;-0.4499517;2.036231;-0.430417;2.034829;0.6062179;1.15;0.6721315;1.20493;
637951504262835950;700.0208;4;0;3;0.2;1.4;1799;1.66759310728182;0.2394144;0.8422153;0.2318175;0.9181749;-0.4499517;2.036231;-0.430417;2.034829;
637951505717653500;845.4767;4;1;3.5;0.2;2;1399;2.50178699070765;-0.3420197;0.5603072;-0.418591;0.5897213;0;2.5;-0.000581447;2.400057;
637951505736758302;847.3868;4;1;3.5;0.2;2;1910;1.83246073298429;0.6427875;2.266045;0.605935;2.252922;-0.3420197;0.5603072;-0.418591;0.5897213;
637951505751752074;848.8864;4;1;3.5;0.2;2;1500;2.33333333333333;-0.8660251;0.9999995;-0.7893997;1.064188;0.6427875;2.266045;0.605935;2.252922;
637951505767744743;850.4854;4;1;3.5;0.2;2;1599;2.18886804252658;0.9848077;1.673648;0.9603702;1.703052;-0.8660251;0.9999995;-0.7893997;1.064188;
637951505783733360;852.0846;4;1;3.5;0.2;2;1599;2.18886804252658;-0.9848078;1.673648;-0.9994709;1.688633;0.9848077;1.673648;0.9603702;1.703052;
637951505826818913;856.3937;4;1;3.5;0.2;2;4309;0.812253423067997;0.8660256;1;0.7996145;1.053893;-0.9848078;1.673648;-0.9994709;1.688633;
637951505875831350;861.2929;4;1;3.5;0.2;2;4899;0.714431516636048;-0.6427882;2.266044;-0.6196857;2.249577;0.8660256;1;0.7996145;1.053893;
637951505901797877;863.8907;4;1;3.5;0.2;2;2598;1.34719014626636;0.3420205;0.5603075;0.3431358;0.5902485;-0.6427882;2.266044;-0.6196857;2.249577;
637951505940777676;867.7889;4;1;1.5;1.1;2;1799;0.833796553640912;-0.3420197;0.5603072;-0.2728762;0.7799746;0;2.5;0.01929638;2.321203;
637951505948779689;868.5884;4;1;1.5;1.1;2;799;1.87734668335419;0.6427875;2.266045;0.3090545;1.911232;-0.3420197;0.5603072;-0.2728762;0.7799746;
637951505962773211;869.988;4;1;1.5;1.1;2;1400;1.07142857142857;-0.8660251;0.9999995;-0.662753;1.212736;0.6427875;2.266045;0.3090545;1.911232;
637951505975876500;871.2982;4;1;1.5;1.1;2;1310;1.14503816793893;0.9848077;1.673648;0.9211575;1.626387;-0.8660251;0.9999995;-0.662753;1.212736;
637951505988869768;872.5978;4;1;1.5;1.1;2;1300;1.15384615384615;-0.9848078;1.673648;-0.8009902;1.667884;0.9848077;1.673648;0.9211575;1.626387;
637951506003863538;874.0971;4;1;1.5;1.1;2;1499;1.00066711140761;0.8660256;1;0.6893783;1.20645;-0.9848078;1.673648;-0.8009902;1.667884;
637951506014856299;875.1964;4;1;1.5;1.1;2;1099;1.36487716105551;-0.6427882;2.266044;-0.6115176;2.107688;0.8660256;1;0.6893783;1.20645;
637951506032850824;876.996;4;1;1.5;1.1;2;1800;0.833333333333333;0.3420205;0.5603075;0.3648589;0.9200733;-0.6427882;2.266044;-0.6115176;2.107688;
637951506054846356;879.1948;4;1;2;0.6;1.8;1300;1.53846153846154;-0.3078177;0.6542765;-0.2945393;0.7880623;0;2.4;-0.04041155;2.308103;
637951506064838868;880.1943;4;1;2;0.6;1.8;1000;2;0.5785087;2.18944;0.5048611;2.063311;-0.3078177;0.6542765;-0.2945393;0.7880623;
637951506077832138;881.4937;4;1;2;0.6;1.8;1299;1.53964588144727;-0.7794226;1.05;-0.7232743;1.23035;0.5785087;2.18944;0.5048611;2.063311;
637951506092825903;882.9929;4;1;2;0.6;1.8;1499;1.33422281521014;0.8863269;1.656283;0.7230778;1.713554;-0.7794226;1.05;-0.7232743;1.23035;
637951506104818919;884.1923;4;1;2;0.6;1.8;1199;1.66805671392827;-0.8863271;1.656283;-0.7562789;1.61364;0.8863269;1.656283;0.7230778;1.713554;
637951506120812934;885.7917;4;1;2;0.6;1.8;1599;1.25078173858662;0.779423;1.05;0.5946133;1.181715;-0.8863271;1.656283;-0.7562789;1.61364;
637951506134896477;887.2018;4;1;2;0.6;1.8;1410;1.41843971631206;-0.5785094;2.18944;-0.5481112;2.061003;0.779423;1.05;0.5946133;1.181715;
637951506159891173;889.7006;4;1;2;0.6;1.8;2499;0.800320128051221;0.3078185;0.6542768;0.2489277;0.93994;-0.5785094;2.18944;-0.5481112;2.061003;
637951506194879965;893.1993;4;1;2.5;0.3;1.4;1799;1.38966092273485;-0.2394138;0.8422151;-0.3286533;0.9442616;0;2.2;-0.01170006;2.169861;
637951506218865087;895.5983;4;1;2.5;0.3;1.4;2399;1.04210087536474;0.4499513;2.036231;0.4145411;2.010548;-0.2394138;0.8422151;-0.3286533;0.9442616;
637951506243967341;898.1083;4;1;2.5;0.3;1.4;2510;0.99601593625498;-0.6062176;1.15;-0.5003546;1.231359;0.4499513;2.036231;0.4145411;2.010548;
637951506259967699;899.7078;4;1;2.5;0.3;1.4;1599;1.56347717323327;0.6893654;1.621554;0.6213626;1.600816;-0.6062176;1.15;-0.5003546;1.231359;
637951506274948102;901.2067;4;1;2.5;0.3;1.4;1499;1.66777851901268;-0.6893655;1.621553;-0.67235;1.592263;0.6893654;1.621554;0.6213626;1.600816;
637951506322938536;906.0047;4;1;2.5;0.3;1.4;4798;0.521050437682368;0.6062179;1.15;0.5711522;1.188762;-0.6893655;1.621553;-0.67235;1.592263;
637951506336031825;907.3151;4;1;2.5;0.3;1.4;1310;1.90839694656489;-0.4499517;2.036231;-0.3838785;1.951963;0.6062179;1.15;0.5711522;1.188762;
637951506349035094;908.6151;4;1;2.5;0.3;1.4;1300;1.92307692307692;0.2394144;0.8422153;0.2414388;0.9899622;-0.4499517;2.036231;-0.3838785;1.951963;
637951506402008407;913.9119;4;1;4;0.1;1.4;2798;1.42959256611866;-0.2394138;0.8422151;-0.2577368;0.8267866;0;2.2;-0.0002970733;2.169376;
637951506427994946;916.5106;4;1;4;0.1;1.4;2599;1.5390534821085;0.4499513;2.036231;0.4420435;2.047089;-0.2394138;0.8422151;-0.2577368;0.8267866;
637951506455981979;919.3094;4;1;4;0.1;1.4;2799;1.4290818149339;-0.6062176;1.15;-0.6123378;1.176586;0.4499513;2.036231;0.4420435;2.047089;
637951506502073573;923.9187;4;1;4;0.1;1.4;4609;0.867867216315904;0.6893654;1.621554;0.6617916;1.61914;-0.6062176;1.15;-0.6123378;1.176586;
637951506521068342;925.8179;4;1;4;0.1;1.4;1899;2.10637177461822;-0.6893655;1.621553;-0.6610776;1.613702;0.6893654;1.621554;0.6617916;1.61914;
637951506580043177;931.7149;4;1;4;0.1;1.4;5897;0.678311005596066;0.6062179;1.15;0.5714029;1.171494;-0.6893655;1.621553;-0.6610776;1.613702;
637951506619135310;935.6245;4;1;4;0.1;1.4;3910;1.0230179028133;-0.4499517;2.036231;-0.4174634;2.038681;0.6062179;1.15;0.5714029;1.171494;
637951506637129832;937.4235;4;1;4;0.1;1.4;1799;2.22345747637576;0.2394144;0.8422153;0.2286221;0.8889318;-0.4499517;2.036231;-0.4174634;2.038681;
637951506698112511;943.5211;4;1;3;0.2;1.4;1899;1.57977883096367;-0.2394138;0.8422151;-0.2257426;0.9059697;0;2.2;0.0002849475;2.140978;
637951506715206804;945.2312;4;1;3;0.2;1.4;1710;1.75438596491228;0.4499513;2.036231;0.4022661;1.977867;-0.2394138;0.8422151;-0.2257426;0.9059697;
637951506748195100;948.5294;4;1;3;0.2;1.4;3298;0.909642207398423;-0.6062176;1.15;-0.5670297;1.241829;0.4499513;2.036231;0.4022661;1.977867;
637951506767189874;950.4288;4;1;3;0.2;1.4;1899;1.57977883096367;0.6893654;1.621554;0.6401907;1.645314;-0.6062176;1.15;-0.5670297;1.241829;
637951506826164701;956.3263;4;1;3;0.2;1.4;5898;0.508646998982706;-0.6893655;1.621553;-0.6598607;1.634074;0.6893654;1.621554;0.6401907;1.645314;
637951506848150225;958.525;4;1;3;0.2;1.4;2199;1.36425648021828;0.6062179;1.15;0.6014709;1.164827;-0.6893655;1.621553;-0.6598607;1.634074;
637951506867144998;960.4243;4;1;3;0.2;1.4;1899;1.57977883096367;-0.4499517;2.036231;-0.4694565;1.975041;0.6062179;1.15;0.6014709;1.164827;
637951506883249043;962.0344;4;1;3;0.2;1.4;1610;1.86335403726708;0.2394144;0.8422153;0.2023097;0.9192096;-0.4499517;2.036231;-0.4694565;1.975041;
637951506949220681;968.6315;4;1;4.5;0.1;2.2;4607;0.976774473627089;-0.3762217;0.4663379;-0.3742068;0.5127248;0;2.6;-0.009725288;2.551525;
637951506983201492;972.0302;4;1;4.5;0.1;2.2;3399;1.32391879964696;0.7070663;2.342649;0.6857977;2.297397;-0.3762217;0.4663379;-0.3742068;0.5127248;
637951507055279760;979.2379;4;1;4.5;0.1;2.2;7208;0.624306326304107;-0.9526277;0.9499994;-0.939355;0.9736677;0.7070663;2.342649;0.6857977;2.297397;
637951507087267806;982.4364;4;1;4.5;0.1;2.2;3199;1.40668959049703;1.083289;1.691013;1.073607;1.72671;-0.9526277;0.9499994;-0.939355;0.9736677;
637951507103261824;984.0354;4;1;4.5;0.1;2.2;1599;2.81425891181989;-1.083289;1.691012;-1.037902;1.699619;1.083289;1.691013;1.073607;1.72671;
637951507125257354;986.2346;4;1;4.5;0.1;2.2;2199;2.04638472032742;0.9526281;0.9500003;0.9356494;0.9970247;-1.083289;1.691012;-1.037902;1.699619;
637951507173349440;991.0436;4;1;4.5;0.1;2.2;4809;0.935745477230193;-0.7070671;2.342648;-0.7022131;2.350806;0.9526281;0.9500003;0.9356494;0.9970247;
637951507220321252;995.7413;4;1;4.5;0.1;2.2;4698;0.957854406130268;0.3762226;0.4663382;0.3511831;0.5053943;-0.7070671;2.342648;-0.7022131;2.350806;
637951508026550297;1076.36;4;2;1.5;1.1;2;1499;1.00066711140761;-0.3420197;0.5603072;-0.1934621;0.7536767;0;2.5;-0.009402037;2.211853;
637951508045649336;1078.271;4;2;1.5;1.1;2;1910;0.785340314136126;0.6427875;2.266045;0.51625;2.143039;-0.3420197;0.5603072;-0.1934621;0.7536767;
637951508056652103;1079.37;4;2;1.5;1.1;2;1099;1.36487716105551;-0.8660251;0.9999995;-0.5774835;1.251581;0.6427875;2.266045;0.51625;2.143039;
637951508065884420;1080.3;4;2;1.5;1.1;2;931;1.61117078410312;0.9848077;1.673648;0.4512004;1.612971;-0.8660251;0.9999995;-0.5774835;1.251581;
637951508076639866;1081.369;4;2;1.5;1.1;2;1069;1.40318054256314;-0.9848078;1.673648;-0.6114654;1.687398;0.9848077;1.673648;0.4512004;1.612971;
637951508089633589;1082.668;4;2;1.5;1.1;2;1299;1.15473441108545;0.8660256;1;0.553074;1.253097;-0.9848078;1.673648;-0.6114654;1.687398;
637951508100627252;1083.768;4;2;1.5;1.1;2;1100;1.36363636363636;-0.6427882;2.266044;-0.4006996;2.077944;0.8660256;1;0.553074;1.253097;
637951508113620521;1085.067;4;2;1.5;1.1;2;1299;1.15473441108545;0.3420205;0.5603075;0.2487161;0.8868486;-0.6427882;2.266044;-0.4006996;2.077944;
637951508146858875;1088.398;4;2;4;0.1;1.4;1531;2.61267145656434;-0.2394138;0.8422151;-0.2689161;0.8255417;0;2.2;0.04255111;2.211538;
637951508179597106;1091.664;4;2;4;0.1;1.4;3266;1.22473974280465;0.4499513;2.036231;0.435401;2.019775;-0.2394138;0.8422151;-0.2689161;0.8255417;
637951508207704172;1094.475;4;2;4;0.1;1.4;2811;1.42298114549982;-0.6062176;1.15;-0.6234583;1.162937;0.4499513;2.036231;0.435401;2.019775;
637951508221687683;1095.874;4;2;4;0.1;1.4;1399;2.85918513223731;0.6893654;1.621554;0.7279128;1.596917;-0.6062176;1.15;-0.6234583;1.162937;
637951508245673716;1098.272;4;2;4;0.1;1.4;2398;1.66805671392827;-0.6893655;1.621553;-0.6509869;1.600721;0.6893654;1.621554;0.7279128;1.596917;
637951508262667988;1099.972;4;2;4;0.1;1.4;1699;2.35432607416127;0.6062179;1.15;0.5881622;1.139377;-0.6893655;1.621553;-0.6509869;1.600721;
637951508279662262;1101.671;4;2;4;0.1;1.4;1699;2.35432607416127;-0.4499517;2.036231;-0.4495616;2.002017;0.6062179;1.15;0.5881622;1.139377;
637951508300657541;1103.77;4;2;4;0.1;1.4;2099;1.90566936636494;0.2394144;0.8422153;0.2504466;0.8869929;-0.4499517;2.036231;-0.4495616;2.002017;
637951508355741390;1109.279;4;2;3;0.2;1.4;4409;0.680426400544341;-0.2394138;0.8422151;-0.2255822;0.9319694;0;2.2;0.04254312;2.194929;
637951508364743662;1110.178;4;2;3;0.2;1.4;900;3.33333333333333;0.4499513;2.036231;0.4027598;2.047348;-0.2394138;0.8422151;-0.2255822;0.9319694;
637951508378737167;1111.577;4;2;3;0.2;1.4;1399;2.14438884917798;-0.6062176;1.15;-0.5864221;1.158455;0.4499513;2.036231;0.4027598;2.047348;
637951508394731190;1113.177;4;2;3;0.2;1.4;1600;1.875;0.6893654;1.621554;0.6295925;1.580941;-0.6062176;1.15;-0.5864221;1.158455;
637951508416726752;1115.376;4;2;3;0.2;1.4;2199;1.36425648021828;-0.6893655;1.621553;-0.6959722;1.556357;0.6893654;1.621554;0.6295925;1.580941;
637951508433711033;1117.075;4;2;3;0.2;1.4;1699;1.76574455562095;0.6062179;1.15;0.6197898;1.196143;-0.6893655;1.621553;-0.6959722;1.556357;
637951508477687626;1121.473;4;2;3;0.2;1.4;4398;0.682128240109141;-0.4499517;2.036231;-0.5221604;2.00972;0.6062179;1.15;0.6197898;1.196143;
637951508529780723;1126.682;4;2;3;0.2;1.4;5208;0.576036866359447;0.2394144;0.8422153;0.2197621;0.8633875;-0.4499517;2.036231;-0.5221604;2.00972;
637951508607740325;1134.478;4;2;4.5;0.1;2.2;1500;3;-0.3762217;0.4663379;-0.3589195;0.4828223;0;2.6;-0.01453535;2.596387;
637951508619233211;1135.635;4;2;4.5;0.1;2.2;1156;3.89273356401384;0.7070663;2.342649;0.6773996;2.379817;-0.3762217;0.4663379;-0.3589195;0.4828223;
637951508740913801;1147.794;4;2;4.5;0.1;2.2;12160;0.370065789473684;-0.9526277;0.9499994;-0.9429824;0.9692414;0.7070663;2.342649;0.6773996;2.379817;
637951508813883594;1155.091;4;2;4.5;0.1;2.2;7297;0.616691791147047;1.083289;1.691013;1.070926;1.667665;-0.9526277;0.9499994;-0.9429824;0.9692414;
637951508871902071;1160.893;4;2;4.5;0.1;2.2;5801;0.775728322702982;-1.083289;1.691012;-1.039877;1.698551;1.083289;1.691013;1.070926;1.667665;
637951509112972679;1185;4;2;4.5;0.1;2.2;24107;0.186667772846061;0.9526281;0.9500003;0.9295725;0.9786606;-1.083289;1.691012;-1.039877;1.698551;
637951509128966703;1186.599;4;2;4.5;0.1;2.2;1599;2.81425891181989;-0.7070671;2.342648;-0.6952603;2.299658;0.9526281;0.9500003;0.9295725;0.9786606;
637951509157305028;1189.439;4;2;4.5;0.1;2.2;2840;1.58450704225352;0.3762226;0.4663382;0.4163095;0.4963014;-0.7070671;2.342648;-0.6952603;2.299658;
637951509206045909;1194.307;4;2;3.5;0.2;2;1399;2.50178699070765;-0.3420197;0.5603072;-0.4063683;0.6315653;0;2.5;-0.03055821;2.456881;
637951509218037688;1195.506;4;2;3.5;0.2;2;1199;2.91909924937448;0.6427875;2.266045;0.5937621;2.230253;-0.3420197;0.5603072;-0.4063683;0.6315653;
637951509234030219;1197.105;4;2;3.5;0.2;2;1599;2.18886804252658;-0.8660251;0.9999995;-0.8252327;1.034695;0.6427875;2.266045;0.5937621;2.230253;
637951509249023991;1198.604;4;2;3.5;0.2;2;1499;2.33488992661775;0.9848077;1.673648;0.88867;1.660812;-0.8660251;0.9999995;-0.8252327;1.034695;
637951509310109347;1204.713;4;2;3.5;0.2;2;6108;0.573018991486575;-0.9848078;1.673648;-0.9478717;1.676869;0.9848077;1.673648;0.88867;1.660812;
637951509330104371;1206.712;4;2;3.5;0.2;2;1999;1.75087543771886;0.8660256;1;0.7938653;1.064461;-0.9848078;1.673648;-0.9478717;1.676869;
637951509352209933;1208.923;4;2;3.5;0.2;2;2211;1.58299412030755;-0.6427882;2.266044;-0.6121039;2.256842;0.8660256;1;0.7938653;1.064461;
637951509364202950;1210.122;4;2;3.5;0.2;2;1199;2.91909924937448;0.3420205;0.5603075;0.3526524;0.5665785;-0.6427882;2.266044;-0.6121039;2.256842;
637951509400171990;1213.72;4;2;2;0.6;1.8;1399;1.42959256611866;-0.3078177;0.6542765;-0.3531668;0.8533913;0;2.4;0.003920063;2.241781;
637951509413165253;1215.019;4;2;2;0.6;1.8;1299;1.53964588144727;0.5785087;2.18944;0.5477455;2.065225;-0.3078177;0.6542765;-0.3531668;0.8533913;
637951509427158773;1216.419;4;2;2;0.6;1.8;1399;1.42959256611866;-0.7794226;1.05;-0.7091109;1.124858;0.5785087;2.18944;0.5477455;2.065225;
637951509439151789;1217.618;4;2;2;0.6;1.8;1199;1.66805671392827;0.8863269;1.656283;0.7069971;1.636474;-0.7794226;1.05;-0.7091109;1.124858;
637951509450144553;1218.718;4;2;2;0.6;1.8;1099;1.81983621474067;-0.8863271;1.656283;-0.7087304;1.607217;0.8863269;1.656283;0.7069971;1.636474;
637951509464138064;1220.117;4;2;2;0.6;1.8;1399;1.42959256611866;0.779423;1.05;0.6171407;1.143011;-0.8863271;1.656283;-0.7087304;1.607217;
637951509478141583;1221.517;4;2;2;0.6;1.8;1400;1.42857142857143;-0.5785094;2.18944;-0.697276;2.030403;0.779423;1.05;0.6171407;1.143011;
637951509491234884;1222.827;4;2;2;0.6;1.8;1310;1.52671755725191;0.3078185;0.6542768;0.202067;0.8340554;-0.5785094;2.18944;-0.697276;2.030403;
637951509517231419;1225.426;4;2;2.5;0.3;1.4;1500;1.66666666666667;-0.2394138;0.8422151;-0.205328;0.8908303;0;2.2;0.02224768;2.183381;
637951509532215180;1226.925;4;2;2.5;0.3;1.4;1499;1.66777851901268;0.4499513;2.036231;0.3939697;2.040457;-0.2394138;0.8422151;-0.205328;0.8908303;
637951509549217475;1228.624;4;2;2.5;0.3;1.4;1699;1.47145379635079;-0.6062176;1.15;-0.7316023;1.132412;0.4499513;2.036231;0.3939697;2.040457;
637951509562206166;1229.924;4;2;2.5;0.3;1.4;1300;1.92307692307692;0.6893654;1.621554;0.5571547;1.628746;-0.6062176;1.15;-0.7316023;1.132412;
637951509575199433;1231.223;4;2;2.5;0.3;1.4;1299;1.92455735180908;-0.6893655;1.621553;-0.6318257;1.575943;0.6893654;1.621554;0.5571547;1.628746;
637951509590193067;1232.722;4;2;2.5;0.3;1.4;1500;1.66666666666667;0.6062179;1.15;0.5058858;1.21279;-0.6893655;1.621553;-0.6318257;1.575943;
637951509605194567;1234.221;4;2;2.5;0.3;1.4;1499;1.66777851901268;-0.4499517;2.036231;-0.4290372;1.991034;0.6062179;1.15;0.5058858;1.21279;
637951509618296073;1235.532;4;2;2.5;0.3;1.4;1311;1.906941266209;0.2394144;0.8422153;0.2042498;0.8622441;-0.4499517;2.036231;-0.4290372;1.991034;
637951510610702212;1334.77;4;3;4.5;0.1;2.2;15209;0.295877440988888;-0.3762217;0.4663379;-0.3715852;0.5159664;0;2.6;-0.003973559;2.586804;
637951510631687487;1336.869;4;3;4.5;0.1;2.2;2099;2.14387803716055;0.7070663;2.342649;0.6871182;2.336571;-0.3762217;0.4663379;-0.3715852;0.5159664;
637951510648631749;1338.563;4;3;4.5;0.1;2.2;1694;2.65643447461629;-0.9526277;0.9499994;-0.93148;0.9380462;0.7070663;2.342649;0.6871182;2.336571;
637951510670727303;1340.773;4;3;4.5;0.1;2.2;2210;2.03619909502262;1.083289;1.691013;1.059272;1.677587;-0.9526277;0.9499994;-0.93148;0.9380462;
637951510689722079;1342.672;4;3;4.5;0.1;2.2;1899;2.3696682464455;-1.083289;1.691012;-1.098009;1.668659;1.083289;1.691013;1.059272;1.677587;
637951510771694673;1350.869;4;3;4.5;0.1;2.2;8197;0.548981334634623;0.9526281;0.9500003;0.9574754;0.9640859;-1.083289;1.691012;-1.098009;1.668659;
637951510922850883;1365.984;4;3;4.5;0.1;2.2;15115;0.297717499173007;-0.7070671;2.342648;-0.7258701;2.339552;0.9526281;0.9500003;0.9574754;0.9640859;
637951510945146489;1368.22;4;3;4.5;0.1;2.2;2236;2.01252236135957;0.3762226;0.4663382;0.3731735;0.5156226;-0.7070671;2.342648;-0.7258701;2.339552;
637951510974873962;1371.187;4;3;2;0.6;1.8;1599;1.25078173858662;-0.3078177;0.6542765;-0.33202;0.9343526;0;2.4;0.02577652;2.270002;
637951510985816712;1372.281;4;3;2;0.6;1.8;1094;1.82815356489945;0.5785087;2.18944;0.4702328;1.996289;-0.3078177;0.6542765;-0.33202;0.9343526;
637951510999810229;1373.68;4;3;2;0.6;1.8;1399;1.42959256611866;-0.7794226;1.05;-0.6801522;1.194123;0.5785087;2.18944;0.4702328;1.996289;
637951511011803244;1374.88;4;3;2;0.6;1.8;1199;1.66805671392827;0.8863269;1.656283;0.7778119;1.648177;-0.7794226;1.05;-0.6801522;1.194123;
637951511023806264;1376.079;4;3;2;0.6;1.8;1200;1.66666666666667;-0.8863271;1.656283;-0.7773867;1.624532;0.8863269;1.656283;0.7778119;1.648177;
637951511036799530;1377.379;4;3;2;0.6;1.8;1299;1.53964588144727;0.779423;1.05;0.6548095;1.191676;-0.8863271;1.656283;-0.7773867;1.624532;
637951511049853273;1378.683;4;3;2;0.6;1.8;1305;1.53256704980843;-0.5785094;2.18944;-0.5135407;1.989902;0.779423;1.05;0.6548095;1.191676;
637951511063946354;1380.093;4;3;2;0.6;1.8;1410;1.41843971631206;0.3078185;0.6542768;0.2632999;0.8327264;-0.5785094;2.18944;-0.5135407;1.989902;
637951511084891618;1382.187;4;3;1.5;1.1;2;1099;1.36487716105551;-0.3420197;0.5603072;-0.3043113;1.010672;0;2.5;0.09170954;2.165416;
637951511094844124;1383.183;4;3;1.5;1.1;2;995;1.50753768844221;0.6427875;2.266045;0.4503211;1.926157;-0.3420197;0.5603072;-0.3043113;1.010672;
637951511103886394;1384.087;4;3;1.5;1.1;2;904;1.65929203539823;-0.8660251;0.9999995;-0.6758263;1.336035;0.6427875;2.266045;0.4503211;1.926157;
637951511116879662;1385.386;4;3;1.5;1.1;2;1299;1.15473441108545;0.9848077;1.673648;0.6646792;1.655369;-0.8660251;0.9999995;-0.6758263;1.336035;
637951511124871678;1386.186;4;3;1.5;1.1;2;800;1.875;-0.9848078;1.673648;-0.4716414;1.676568;0.9848077;1.673648;0.6646792;1.655369;
637951511135864437;1387.285;4;3;1.5;1.1;2;1099;1.36487716105551;0.8660256;1;0.7339228;1.305228;-0.9848078;1.673648;-0.4716414;1.676568;
637951511145866953;1388.285;4;3;1.5;1.1;2;1000;1.5;-0.6427882;2.266044;-0.5789046;2.03696;0.8660256;1;0.7339228;1.305228;
637951511154865896;1389.184;4;3;1.5;1.1;2;900;1.66666666666667;0.3420205;0.5603075;0.2751058;1.046931;-0.6427882;2.266044;-0.5789046;2.03696;
637951511195892114;1393.287;4;3;3.5;0.2;2;1104;3.17028985507246;-0.3420197;0.5603072;-0.3576902;0.6510581;0;2.5;-0.02290481;2.405951;
637951511207835567;1394.482;4;3;3.5;0.2;2;1195;2.92887029288703;0.6427875;2.266045;0.5478024;2.269268;-0.3420197;0.5603072;-0.3576902;0.6510581;
637951511223945113;1396.092;4;3;3.5;0.2;2;1610;2.17391304347826;-0.8660251;0.9999995;-0.7863365;1.048046;0.6427875;2.266045;0.5478024;2.269268;
637951511234932913;1397.192;4;3;3.5;0.2;2;1099;3.18471337579618;0.9848077;1.673648;0.911276;1.713157;-0.8660251;0.9999995;-0.7863365;1.048046;
637951511246930056;1398.391;4;3;3.5;0.2;2;1199;2.91909924937448;-0.9848078;1.673648;-0.9533055;1.679518;0.9848077;1.673648;0.911276;1.713157;
637951511258927652;1399.591;4;3;3.5;0.2;2;1200;2.91666666666667;0.8660256;1;0.9255371;0.990044;-0.9848078;1.673648;-0.9533055;1.679518;
637951511267921614;1400.49;4;3;3.5;0.2;2;899;3.89321468298109;-0.6427882;2.266044;-0.6327366;2.198794;0.8660256;1;0.9255371;0.990044;
637951511281201257;1401.826;4;3;3.5;0.2;2;1336;2.61976047904192;0.3420205;0.5603075;0.4196907;0.5205263;-0.6427882;2.266044;-0.6327366;2.198794;
637951511354049922;1409.102;4;3;4;0.1;1.4;5114;0.782166601486117;-0.2394138;0.8422151;-0.250868;0.8452537;0;2.2;0.00289911;2.177751;
637951511364992678;1410.197;4;3;4;0.1;1.4;1094;3.6563071297989;0.4499513;2.036231;0.4466979;2.075131;-0.2394138;0.8422151;-0.250868;0.8452537;
637951511378336025;1411.539;4;3;4;0.1;1.4;1342;2.9806259314456;-0.6062176;1.15;-0.6235553;1.108047;0.4499513;2.036231;0.4466979;2.075131;
637951511389978953;1412.696;4;3;4;0.1;1.4;1157;3.45721694036301;0.6893654;1.621554;0.6521837;1.639415;-0.6062176;1.15;-0.6235553;1.108047;
637951511453955034;1419.093;4;3;4;0.1;1.4;6397;0.625293106143505;-0.6893655;1.621553;-0.6464745;1.608544;0.6893654;1.621554;0.6521837;1.639415;
637951511467058329;1420.404;4;3;4;0.1;1.4;1311;3.0511060259344;0.6062179;1.15;0.5960138;1.158769;-0.6893655;1.621553;-0.6464745;1.608544;
637951511565022961;1430.199;4;3;4;0.1;1.4;9796;0.408329930583912;-0.4499517;2.036231;-0.4409577;2.01184;0.6062179;1.15;0.5960138;1.158769;
637951511754048170;1449.101;4;3;4;0.1;1.4;18902;0.211617818220294;0.2394144;0.8422153;0.2405921;0.8568388;-0.4499517;2.036231;-0.4409577;2.01184;
637951511807141516;1454.411;4;3;2.5;0.3;1.4;4198;0.595521676989042;-0.2394138;0.8422151;-0.221921;0.8893808;0;2.2;0.01518112;2.100118;
637951511819134534;1455.61;4;3;2.5;0.3;1.4;1199;2.08507089241034;0.4499513;2.036231;0.4301885;1.88989;-0.2394138;0.8422151;-0.221921;0.8893808;
637951511864115840;1460.108;4;3;2.5;0.3;1.4;4498;0.555802578923966;-0.6062176;1.15;-0.5609311;1.215169;0.4499513;2.036231;0.4301885;1.88989;
637951511875108602;1461.207;4;3;2.5;0.3;1.4;1100;2.27272727272727;0.6893654;1.621554;0.6730201;1.582317;-0.6062176;1.15;-0.5609311;1.215169;
637951511901095136;1463.806;4;3;2.5;0.3;1.4;2599;0.961908426317814;-0.6893655;1.621553;-0.6364563;1.641289;0.6893654;1.621554;0.6730201;1.582317;
637951512002165403;1473.912;4;3;2.5;0.3;1.4;10106;0.247377795369088;0.6062179;1.15;0.5502079;1.202012;-0.6893655;1.621553;-0.6364563;1.641289;
637951512106228712;1484.319;4;3;2.5;0.3;1.4;10407;0.240222926876141;-0.4499517;2.036231;-0.3930224;2.0794;0.6062179;1.15;0.5502079;1.202012;
637951512117221473;1485.418;4;3;2.5;0.3;1.4;1099;2.27479526842584;0.2394144;0.8422153;0.1784141;0.9297485;-0.4499517;2.036231;-0.3930224;2.0794;
637951512509279426;1524.623;4;3;3;0.2;1.4;1668;1.79856115107914;-0.2394138;0.8422151;-0.2256309;0.8771486;0;2.2;0.002961203;2.100315;
637951512520272190;1525.722;4;3;3;0.2;1.4;1100;2.72727272727273;0.4499513;2.036231;0.4949278;1.991451;-0.2394138;0.8422151;-0.2256309;0.8771486;
637951512532385233;1526.933;4;3;3;0.2;1.4;1211;2.47729149463254;-0.6062176;1.15;-0.6356059;1.135896;0.4499513;2.036231;0.4949278;1.991451;
637951512543377998;1528.032;4;3;3;0.2;1.4;1099;2.72975432211101;0.6893654;1.621554;0.6550242;1.639793;-0.6062176;1.15;-0.6356059;1.135896;
637951512553430521;1529.037;4;3;3;0.2;1.4;1005;2.98507462686567;-0.6893655;1.621553;-0.755807;1.597663;0.6893654;1.621554;0.6550242;1.639793;
637951512565363523;1530.231;4;3;3;0.2;1.4;1194;2.51256281407035;0.6062179;1.15;0.5745331;1.10989;-0.6893655;1.621553;-0.755807;1.597663;
637951512575366037;1531.231;4;3;3;0.2;1.4;1000;3;-0.4499517;2.036231;-0.4675871;1.990436;0.6062179;1.15;0.5745331;1.10989;
637951512586358804;1532.33;4;3;3;0.2;1.4;1099;2.72975432211101;0.2394144;0.8422153;0.2243355;0.8308229;-0.4499517;2.036231;-0.4675871;1.990436;
637951513982108503;1671.9;4;4;3;0.2;1.4;1011;2.9673590504451;-0.2394138;0.8422151;-0.2222046;0.92836;0;2.2;0.002938576;2.150421;
637951513992109475;1672.9;4;4;3;0.2;1.4;999;3.003003003003;0.4499513;2.036231;0.4585148;1.986187;-0.2394138;0.8422151;-0.2222046;0.92836;
637951514003104883;1673.999;4;4;3;0.2;1.4;1100;2.72727272727273;-0.6062176;1.15;-0.6202644;1.184801;0.4499513;2.036231;0.4585148;1.986187;
637951514013147407;1675.004;4;4;3;0.2;1.4;1005;2.98507462686567;0.6893654;1.621554;0.7348127;1.626535;-0.6062176;1.15;-0.6202644;1.184801;
637951514023089909;1675.998;4;4;3;0.2;1.4;995;3.01507537688442;-0.6893655;1.621553;-0.6309809;1.592532;0.6893654;1.621554;0.7348127;1.626535;
637951514048086195;1678.498;4;4;3;0.2;1.4;2499;1.20048019207683;0.6062179;1.15;0.5560855;1.228646;-0.6893655;1.621553;-0.6309809;1.592532;
637951514059078954;1679.596;4;4;3;0.2;1.4;1099;2.72975432211101;-0.4499517;2.036231;-0.458962;1.971195;0.6062179;1.15;0.5560855;1.228646;
637951514069121478;1680.601;4;4;3;0.2;1.4;1005;2.98507462686567;0.2394144;0.8422153;0.1733743;0.8907818;-0.4499517;2.036231;-0.458962;1.971195;
637951514158143872;1689.503;4;4;4.5;0.1;2.2;5109;0.880798590722255;-0.3762217;0.4663379;-0.3850736;0.4951016;0;2.6;-0.003039971;2.572565;
637951514201124662;1693.801;4;4;4.5;0.1;2.2;4298;1.04699860400186;0.7070663;2.342649;0.6824727;2.325028;-0.3762217;0.4663379;-0.3850736;0.4951016;
637951514227171209;1696.406;4;4;4.5;0.1;2.2;2604;1.72811059907834;-0.9526277;0.9499994;-0.9344777;0.9750689;0.7070663;2.342649;0.6824727;2.325028;
637951514239104208;1697.599;4;4;4.5;0.1;2.2;1194;3.76884422110553;1.083289;1.691013;1.107515;1.7136;-0.9526277;0.9499994;-0.9344777;0.9750689;
637951514249106729;1698.599;4;4;4.5;0.1;2.2;1000;4.5;-1.083289;1.691012;-1.108944;1.68633;1.083289;1.691013;1.107515;1.7136;
637951514277093759;1701.398;4;4;4.5;0.1;2.2;2799;1.60771704180064;0.9526281;0.9500003;0.9715623;0.968244;-1.083289;1.691012;-1.108944;1.68633;
637951514305243583;1704.213;4;4;4.5;0.1;2.2;2815;1.59857904085258;-0.7070671;2.342648;-0.7002241;2.343625;0.9526281;0.9500003;0.9715623;0.968244;
637951514347174110;1708.406;4;4;4.5;0.1;2.2;4193;1.07321726687336;0.3762226;0.4663382;0.3464985;0.5031942;-0.7070671;2.342648;-0.7002241;2.343625;
637951514431310659;1716.818;4;4;4;0.1;1.4;1599;2.50156347717323;-0.2394138;0.8422151;-0.2648987;0.8499044;0;2.2;-0.01167425;2.167165;
637951514445240993;1718.212;4;4;4;0.1;1.4;1394;2.86944045911047;0.4499513;2.036231;0.4652588;2.039144;-0.2394138;0.8422151;-0.2648987;0.8499044;
637951514479281861;1721.616;4;4;4;0.1;1.4;3404;1.17508813160987;-0.6062176;1.15;-0.5975456;1.147777;0.4499513;2.036231;0.4652588;2.039144;
637951514530366946;1726.725;4;4;4;0.1;1.4;5108;0.783085356303837;0.6893654;1.621554;0.6645062;1.649481;-0.6062176;1.15;-0.5975456;1.147777;
637951514544313559;1728.119;4;4;4;0.1;1.4;1395;2.8673835125448;-0.6893655;1.621553;-0.7023766;1.589137;0.6893654;1.621554;0.6645062;1.649481;
637951514556556441;1729.35;4;4;4;0.1;1.4;1231;3.24939073923639;0.6062179;1.15;0.5917761;1.108277;-0.6893655;1.621553;-0.7023766;1.589137;
637951514585293661;1732.217;4;4;4;0.1;1.4;2867;1.39518660620858;-0.4499517;2.036231;-0.4475918;2.016761;0.6062179;1.15;0.5917761;1.108277;
637951514615281202;1735.216;4;4;4;0.1;1.4;2999;1.33377792597533;0.2394144;0.8422153;0.2168024;0.8854303;-0.4499517;2.036231;-0.4475918;2.016761;
637951514634275978;1737.115;4;4;1.5;1.1;2;1000;1.5;-0.3420197;0.5603072;-0.2455128;0.9164433;0;2.5;0.03004987;2.175093;
637951514644278495;1738.115;4;4;1.5;1.1;2;1000;1.5;0.6427875;2.266045;0.4759513;1.961889;-0.3420197;0.5603072;-0.2455128;0.9164433;
637951514682358068;1741.924;4;4;1.5;1.1;2;3809;0.39380414807036;-0.8660251;0.9999995;-0.7031068;1.210313;0.6427875;2.266045;0.4759513;1.961889;
637951514692360578;1742.923;4;4;1.5;1.1;2;1000;1.5;0.9848077;1.673648;0.808475;1.654797;-0.8660251;0.9999995;-0.7031068;1.210313;
637951514700292574;1743.717;4;4;1.5;1.1;2;793;1.89155107187894;-0.9848078;1.673648;-0.628485;1.615727;0.9848077;1.673648;0.808475;1.654797;
637951514710355106;1744.722;4;4;1.5;1.1;2;1006;1.49105367793241;0.8660256;1;0.5331106;1.121834;-0.9848078;1.673648;-0.628485;1.615727;
637951514748324650;1748.521;4;4;1.5;1.1;2;3799;0.394840747565149;-0.6427882;2.266044;-0.5723957;2.330157;0.8660256;1;0.5331106;1.121834;
637951514758317160;1749.521;4;4;1.5;1.1;2;999;1.5015015015015;0.3420205;0.5603075;0.08281226;0.7593076;-0.6427882;2.266044;-0.5723957;2.330157;
637951514797356976;1753.424;4;4;2.5;0.3;1.4;1005;2.48756218905473;-0.2394138;0.8422151;-0.2549231;0.9158013;0;2.2;0.003868509;2.127746;
637951514806409250;1754.329;4;4;2.5;0.3;1.4;905;2.76243093922652;0.4499513;2.036231;0.4176177;1.978999;-0.2394138;0.8422151;-0.2549231;0.9158013;
637951514815401509;1755.229;4;4;2.5;0.3;1.4;900;2.77777777777778;-0.6062176;1.15;-0.5260393;1.261799;0.4499513;2.036231;0.4176177;1.978999;
637951514836396785;1757.328;4;4;2.5;0.3;1.4;2099;1.19104335397808;0.6893654;1.621554;0.6387455;1.592559;-0.6062176;1.15;-0.5260393;1.261799;
637951514871375581;1760.826;4;4;2.5;0.3;1.4;3498;0.714694110920526;-0.6893655;1.621553;-0.6374022;1.632056;0.6893654;1.621554;0.6387455;1.592559;
637951514880377763;1761.726;4;4;2.5;0.3;1.4;900;2.77777777777778;0.6062179;1.15;0.5733351;1.145647;-0.6893655;1.621553;-0.6374022;1.632056;
637951514903370391;1764.025;4;4;2.5;0.3;1.4;2299;1.08742931709439;-0.4499517;2.036231;-0.40545;1.996934;0.6062179;1.15;0.5733351;1.145647;
637951514914583211;1765.154;4;4;2.5;0.3;1.4;1129;2.21434898139947;0.2394144;0.8422153;0.3786283;0.804263;-0.4499517;2.036231;-0.40545;1.996934;
637951514942398983;1767.928;4;4;2;0.6;1.8;2004;0.998003992015968;-0.3078177;0.6542765;-0.2754336;0.8520571;0;2.4;-0.02046222;2.250781;
637951514950393679;1768.728;4;4;2;0.6;1.8;800;2.5;0.5785087;2.18944;0.4185466;2.083706;-0.3078177;0.6542765;-0.2754336;0.8520571;
637951514959345064;1769.622;4;4;2;0.6;1.8;894;2.23713646532438;-0.7794226;1.05;-0.739998;1.073252;0.5785087;2.18944;0.4185466;2.083706;
637951514967453627;1770.433;4;4;2;0.6;1.8;811;2.46609124537608;0.8863269;1.656283;0.7082323;1.613189;-0.7794226;1.05;-0.739998;1.073252;
637951515023429832;1776.03;4;4;2;0.6;1.8;5597;0.357334286224763;-0.8863271;1.656283;-0.7208556;1.683833;0.8863269;1.656283;0.7082323;1.613189;
637951515086399690;1782.327;4;4;2;0.6;1.8;6297;0.317611561060823;0.779423;1.05;0.6626694;1.183277;-0.8863271;1.656283;-0.7208556;1.683833;
637951515094391687;1783.127;4;4;2;0.6;1.8;800;2.5;-0.5785094;2.18944;-0.5943338;1.944871;0.779423;1.05;0.6626694;1.183277;
637951515104504231;1784.138;4;4;2;0.6;1.8;1011;1.9782393669634;0.3078185;0.6542768;0.2330329;0.8299818;-0.5785094;2.18944;-0.5943338;1.944871;
637951515178562845;1791.544;4;4;3.5;0.2;2;909;3.85038503850385;-0.3420197;0.5603072;-0.2887849;0.6145856;0;2.5;-0.0051913;2.480661;
637951515186464829;1792.334;4;4;3.5;0.2;2;790;4.43037974683544;0.6427875;2.266045;0.6651323;2.268486;-0.3420197;0.5603072;-0.2887849;0.6145856;
637951515248720484;1798.567;4;4;3.5;0.2;2;6233;0.561527354403979;-0.8660251;0.9999995;-0.8644547;1.098542;0.6427875;2.266045;0.6651323;2.268486;
637951515259433179;1799.631;4;4;3.5;0.2;2;1064;3.28947368421053;0.9848077;1.673648;0.930258;1.631093;-0.8660251;0.9999995;-0.8644547;1.098542;
637951515269545719;1800.641;4;4;3.5;0.2;2;1011;3.46191889218595;-0.9848078;1.673648;-0.9712183;1.649708;0.9848077;1.673648;0.930258;1.631093;
637951515280538476;1801.741;4;4;3.5;0.2;2;1100;3.18181818181818;0.8660256;1;0.9517207;1.028058;-0.9848078;1.673648;-0.9712183;1.649708;
637951515299523257;1803.64;4;4;3.5;0.2;2;1899;1.84307530279094;-0.6427882;2.266044;-0.6063703;2.260918;0.8660256;1;0.9517207;1.028058;
637951515322569052;1805.944;4;4;3.5;0.2;2;2304;1.51909722222222;0.3420205;0.5603075;0.4026136;0.6073862;-0.6427882;2.266044;-0.6063703;2.260918;
637951516014116950;1875.103;4;5;4;0.1;1.4;1050;3.80952380952381;-0.2394138;0.8422151;-0.2565539;0.8852915;0;2.2;0.02004352;2.206737;
637951516047775411;1878.462;4;5;4;0.1;1.4;3359;1.19083060434653;0.4499513;2.036231;0.4420946;2.019354;-0.2394138;0.8422151;-0.2565539;0.8852915;
637951516201933521;1893.877;4;5;4;0.1;1.4;15415;0.259487512163477;-0.6062176;1.15;-0.5842085;1.170305;0.4499513;2.036231;0.4420946;2.019354;
637951516315994813;1905.283;4;5;4;0.1;1.4;11406;0.350692617920393;0.6893654;1.621554;0.6873176;1.658086;-0.6062176;1.15;-0.5842085;1.170305;
637951516390133455;1912.696;4;5;4;0.1;1.4;7413;0.539592607581276;-0.6893655;1.621553;-0.6597129;1.630143;0.6893654;1.621554;0.6873176;1.658086;
637951516407067713;1914.39;4;5;4;0.1;1.4;1694;2.36127508854782;0.6062179;1.15;0.5818123;1.17453;-0.6893655;1.621553;-0.6597129;1.630143;
637951516490038576;1922.686;4;5;4;0.1;1.4;8296;0.482160077145612;-0.4499517;2.036231;-0.4279673;2.058318;0.6062179;1.15;0.5818123;1.17453;
637951516706143324;1944.298;4;5;4;0.1;1.4;21612;0.185082361650935;0.2394144;0.8422153;0.2482844;0.864141;-0.4499517;2.036231;-0.4279673;2.058318;
637951516732139870;1946.897;4;5;3;0.2;1.4;1395;2.1505376344086;-0.2394138;0.8422151;-0.1880561;0.8855358;0;2.2;-0.003800817;2.184152;
637951516743242665;1948.008;4;5;3;0.2;1.4;1110;2.7027027027027;0.4499513;2.036231;0.4161681;2.007933;-0.2394138;0.8422151;-0.1880561;0.8855358;
637951516753525246;1949.043;4;5;3;0.2;1.4;1035;2.89855072463768;-0.6062176;1.15;-0.5372577;1.222364;0.4499513;2.036231;0.4161681;2.007933;
637951516783282720;1952.011;4;5;3;0.2;1.4;2968;1.01078167115903;0.6893654;1.621554;0.6134679;1.653977;-0.6062176;1.15;-0.5372577;1.222364;
637951516814210502;1955.104;4;5;3;0.2;1.4;3093;0.969932104752667;-0.6893655;1.621553;-0.6551709;1.647047;0.6893654;1.621554;0.6134679;1.653977;
637951516825543351;1956.245;4;5;3;0.2;1.4;1141;2.62927256792287;0.6062179;1.15;0.6955625;1.194168;-0.6893655;1.621553;-0.6551709;1.647047;
637951516835205780;1957.203;4;5;3;0.2;1.4;958;3.13152400835073;-0.4499517;2.036231;-0.3900199;2.042787;0.6062179;1.15;0.6955625;1.194168;
637951516871234835;1960.807;4;5;3;0.2;1.4;3603;0.832639467110741;0.2394144;0.8422153;0.1716914;0.9024216;-0.4499517;2.036231;-0.3900199;2.042787;
637951516890179600;1962.701;4;5;1.5;1.1;2;1000;1.5;-0.3420197;0.5603072;-0.2946987;0.9720936;0;2.5;-0.0002139434;2.082231;
637951516901342405;1963.817;4;5;1.5;1.1;2;1116;1.34408602150538;0.6427875;2.266045;0.4564793;2.078463;-0.3420197;0.5603072;-0.2946987;0.9720936;
637951516912285162;1964.911;4;5;1.5;1.1;2;1094;1.37111517367459;-0.8660251;0.9999995;-0.4909177;1.232996;0.6427875;2.266045;0.4564793;2.078463;
637951516923277915;1966.01;4;5;1.5;1.1;2;1099;1.36487716105551;0.9848077;1.673648;0.5908117;1.662815;-0.8660251;0.9999995;-0.4909177;1.232996;
637951516934270683;1967.11;4;5;1.5;1.1;2;1099;1.36487716105551;-0.9848078;1.673648;-0.583939;1.746233;0.9848077;1.673648;0.5908117;1.662815;
637951516944268244;1968.11;4;5;1.5;1.1;2;1000;1.5;0.8660256;1;0.5167584;1.261908;-0.9848078;1.673648;-0.583939;1.746233;
637951516953268519;1969.009;4;5;1.5;1.1;2;900;1.66666666666667;-0.6427882;2.266044;-0.3411336;2.138071;0.8660256;1;0.5167584;1.261908;
637951516962257689;1969.909;4;5;1.5;1.1;2;900;1.66666666666667;0.3420205;0.5603075;0.1144397;1.061009;-0.6427882;2.266044;-0.3411336;2.138071;
637951516992245223;1972.908;4;5;2;0.6;1.8;2099;0.952834683182468;-0.3078177;0.6542765;-0.1656044;0.7385087;0;2.4;0.05027018;2.222265;
637951517004238243;1974.107;4;5;2;0.6;1.8;1199;1.66805671392827;0.5785087;2.18944;0.5622599;2.11428;-0.3078177;0.6542765;-0.1656044;0.7385087;
637951517018240137;1975.507;4;5;2;0.6;1.8;1400;1.42857142857143;-0.7794226;1.05;-0.8199149;1.160172;0.5785087;2.18944;0.5622599;2.11428;
637951517030343177;1976.717;4;5;2;0.6;1.8;1210;1.65289256198347;0.8863269;1.656283;0.8898016;1.766214;-0.7794226;1.05;-0.8199149;1.160172;
637951517046337203;1978.316;4;5;2;0.6;1.8;1599;1.25078173858662;-0.8863271;1.656283;-0.8312324;1.613626;0.8863269;1.656283;0.8898016;1.766214;
637951517073323980;1981.015;4;5;2;0.6;1.8;2699;0.741015190811412;0.779423;1.05;0.829358;1.204864;-0.8863271;1.656283;-0.8312324;1.613626;
637951517087317504;1982.414;4;5;2;0.6;1.8;1399;1.42959256611866;-0.5785094;2.18944;-0.5558783;2.123098;0.779423;1.05;0.829358;1.204864;
637951517100310766;1983.714;4;5;2;0.6;1.8;1299;1.53964588144727;0.3078185;0.6542768;0.2518558;0.9132515;-0.5785094;2.18944;-0.5558783;2.123098;
637951517277355281;2001.417;4;5;4.5;0.1;2.2;12106;0.371716504212787;-0.3762217;0.4663379;-0.4125882;0.500239;0;2.6;-0.004527457;2.608215;
637951517337437180;2007.425;4;5;4.5;0.1;2.2;6008;0.749001331557923;0.7070663;2.342649;0.7308454;2.31743;-0.3762217;0.4663379;-0.4125882;0.500239;
637951517360422576;2009.724;4;5;4.5;0.1;2.2;2299;1.9573727707699;-0.9526277;0.9499994;-0.9463769;0.9990955;0.7070663;2.342649;0.7308454;2.31743;
637951517420402556;2015.721;4;5;4.5;0.1;2.2;5997;0.750375187593797;1.083289;1.691013;1.089656;1.727635;-0.9526277;0.9499994;-0.9463769;0.9990955;
637951517510465196;2024.728;4;5;4.5;0.1;2.2;9007;0.499611413345176;-1.083289;1.691012;-1.047907;1.705601;1.083289;1.691013;1.089656;1.727635;
637951517527459474;2026.428;4;5;4.5;0.1;2.2;1699;2.64861683343143;0.9526281;0.9500003;0.9057934;0.9517437;-1.083289;1.691012;-1.047907;1.705601;
637951517542453242;2027.927;4;5;4.5;0.1;2.2;1499;3.00200133422282;-0.7070671;2.342648;-0.6926103;2.324824;0.9526281;0.9500003;0.9057934;0.9517437;
637951517565449022;2030.226;4;5;4.5;0.1;2.2;2299;1.9573727707699;0.3762226;0.4663382;0.3942356;0.5119113;-0.7070671;2.342648;-0.6926103;2.324824;
637951517589435052;2032.625;4;5;2.5;0.3;1.4;1200;2.08333333333333;-0.2394138;0.8422151;-0.2195652;0.9331051;0;2.2;7.450581E-09;2.26722;
637951517599437565;2033.624;4;5;2.5;0.3;1.4;999;2.5025025025025;0.4499513;2.036231;0.4534523;1.96284;-0.2394138;0.8422151;-0.2195652;0.9331051;
637951517611540610;2034.835;4;5;2.5;0.3;1.4;1211;2.06440957886045;-0.6062176;1.15;-0.5191271;1.27203;0.4499513;2.036231;0.4534523;1.96284;
637951517631525631;2036.834;4;5;2.5;0.3;1.4;1999;1.25062531265633;0.6893654;1.621554;0.601587;1.672984;-0.6062176;1.15;-0.5191271;1.27203;
637951517641528148;2037.834;4;5;2.5;0.3;1.4;1000;2.5;-0.6893655;1.621553;-0.5484214;1.601519;0.6893654;1.621554;0.601587;1.672984;
637951517674510752;2041.132;4;5;2.5;0.3;1.4;3298;0.758035172832019;0.6062179;1.15;0.5493562;1.248431;-0.6893655;1.621553;-0.5484214;1.601519;
637951517690614801;2042.742;4;5;2.5;0.3;1.4;1610;1.5527950310559;-0.4499517;2.036231;-0.5175498;2.012406;0.6062179;1.15;0.5493562;1.248431;
637951517712604015;2044.941;4;5;2.5;0.3;1.4;2199;1.1368804001819;0.2394144;0.8422153;0.224076;0.9830528;-0.4499517;2.036231;-0.5175498;2.012406;
637951517878756738;2061.556;4;5;3.5;0.2;2;15515;0.225588140509185;-0.3420197;0.5603072;-0.3374815;0.6420096;0;2.5;0.04943766;2.55152;
637951517898751761;2063.555;4;5;3.5;0.2;2;2000;1.75;0.6427875;2.266045;0.5898971;2.249181;-0.3420197;0.5603072;-0.3374815;0.6420096;
637951517915736035;2065.254;4;5;3.5;0.2;2;1699;2.06003531489111;-0.8660251;0.9999995;-0.8074052;1.056692;0.6427875;2.266045;0.5898971;2.249181;
637951517929729548;2066.654;4;5;3.5;0.2;2;1399;2.50178699070765;0.9848077;1.673648;0.9255764;1.703034;-0.8660251;0.9999995;-0.8074052;1.056692;
637951517946773836;2068.358;4;5;3.5;0.2;2;1704;2.05399061032864;-0.9848078;1.673648;-0.9396113;1.694385;0.9848077;1.673648;0.9255764;1.703034;
637951518046798980;2078.359;4;5;3.5;0.2;2;10001;0.34996500349965;0.8660256;1;0.8667802;1.014041;-0.9848078;1.673648;-0.9396113;1.694385;
637951518059792245;2079.659;4;5;3.5;0.2;2;1300;2.69230769230769;-0.6427882;2.266044;-0.576762;2.25543;0.8660256;1;0.8667802;1.014041;
637951518075780863;2081.259;4;5;3.5;0.2;2;1600;2.1875;0.3420205;0.5603075;0.319366;0.6331564;-0.6427882;2.266044;-0.576762;2.25543;
637951518920225709;2165.698;4;6;3.5;0.2;2;1500;2.33333333333333;-0.3420197;0.5603072;-0.3656228;0.6540658;0;2.5;0.04202849;2.466648;
637951518931328503;2166.809;4;6;3.5;0.2;2;1111;3.15031503150315;0.6427875;2.266045;0.6547468;2.238561;-0.3420197;0.5603072;-0.3656228;0.6540658;
637951518942201234;2167.896;4;6;3.5;0.2;2;1088;3.21691176470588;-0.8660251;0.9999995;-0.789672;1.013075;0.6427875;2.266045;0.6547468;2.238561;
637951518954194252;2169.096;4;6;3.5;0.2;2;1199;2.91909924937448;0.9848077;1.673648;0.9378574;1.675096;-0.8660251;0.9999995;-0.789672;1.013075;
637951518986182291;2172.294;4;6;3.5;0.2;2;3198;1.09443402126329;-0.9848078;1.673648;-0.9472286;1.697044;0.9848077;1.673648;0.9378574;1.675096;
637951519004176817;2174.094;4;6;3.5;0.2;2;1799;1.94552529182879;0.8660256;1;0.7876344;1.054327;-0.9848078;1.673648;-0.9472286;1.697044;
637951519031163604;2176.792;4;6;3.5;0.2;2;2699;1.29677658391997;-0.6427882;2.266044;-0.6283345;2.307063;0.8660256;1;0.7876344;1.054327;
637951519043156617;2177.992;4;6;3.5;0.2;2;1199;2.91909924937448;0.3420205;0.5603075;0.2889766;0.6270245;-0.6427882;2.266044;-0.6283345;2.307063;
637951519097500288;2183.432;4;6;4.5;0.1;2.2;3430;1.31195335276968;-0.3762217;0.4663379;-0.3895989;0.5140636;0;2.6;-0.03188836;2.623164;
637951519131233816;2186.799;4;6;4.5;0.1;2.2;3367;1.33650133650134;0.7070663;2.342649;0.700125;2.324598;-0.3762217;0.4663379;-0.3895989;0.5140636;
637951519152234236;2188.898;4;6;4.5;0.1;2.2;2099;2.14387803716055;-0.9526277;0.9499994;-0.956946;0.9662967;0.7070663;2.342649;0.700125;2.324598;
637951519168308275;2190.506;4;6;4.5;0.1;2.2;1608;2.79850746268657;1.083289;1.691013;1.046854;1.676533;-0.9526277;0.9499994;-0.956946;0.9662967;
637951519188323305;2192.508;4;6;4.5;0.1;2.2;2001;2.24887556221889;-1.083289;1.691012;-1.104856;1.696888;1.083289;1.691013;1.046854;1.676533;
637951519218311362;2195.506;4;6;4.5;0.1;2.2;2999;1.50050016672224;0.9526281;0.9500003;0.9470616;0.9768393;-1.083289;1.691012;-1.104856;1.696888;
637951519314379590;2205.113;4;6;4.5;0.1;2.2;9607;0.468408452170292;-0.7070671;2.342648;-0.7062931;2.346388;0.9526281;0.9500003;0.9470616;0.9768393;
637951519458515828;2219.526;4;6;4.5;0.1;2.2;14412;0.312239800166528;0.3762226;0.4663382;0.3361072;0.4649731;-0.7070671;2.342648;-0.7062931;2.346388;
637951519479421079;2221.617;4;6;1.5;1.1;2;1399;1.07219442458899;-0.3420197;0.5603072;-0.2995525;1.059393;0;2.5;0.0741524;2.019716;
637951519491414091;2222.816;4;6;1.5;1.1;2;1199;1.25104253544621;0.6427875;2.266045;0.4977855;1.906191;-0.3420197;0.5603072;-0.2995525;1.059393;
637951519503412170;2224.016;4;6;1.5;1.1;2;1200;1.25;-0.8660251;0.9999995;-0.4936209;1.232507;0.6427875;2.266045;0.4977855;1.906191;
637951519513522851;2225.026;4;6;1.5;1.1;2;1010;1.48514851485149;0.9848077;1.673648;0.6978258;1.585998;-0.8660251;0.9999995;-0.4936209;1.232507;
637951519521513079;2225.825;4;6;1.5;1.1;2;799;1.87734668335419;-0.9848078;1.673648;-0.5691658;1.584187;0.9848077;1.673648;0.6978258;1.585998;
637951519529515724;2226.625;4;6;1.5;1.1;2;800;1.875;0.8660256;1;0.5279354;1.325743;-0.9848078;1.673648;-0.5691658;1.584187;
637951519600480668;2233.722;4;6;1.5;1.1;2;7096;0.211386696730552;-0.6427882;2.266044;-0.5016198;2.125867;0.8660256;1;0.5279354;1.325743;
637951519612473691;2234.921;4;6;1.5;1.1;2;1199;1.25104253544621;0.3420205;0.5603075;0.1855274;0.9370832;-0.6427882;2.266044;-0.5016198;2.125867;
637951519636459715;2237.321;4;6;3;0.2;1.4;1400;2.14285714285714;-0.2394138;0.8422151;-0.2612369;0.9248941;0;2.2;0.06603193;2.195783;
637951519646452218;2238.32;4;6;3;0.2;1.4;1000;3;0.4499513;2.036231;0.3755769;2.051008;-0.2394138;0.8422151;-0.2612369;0.9248941;
637951519657454992;2239.42;4;6;3;0.2;1.4;1100;2.72727272727273;-0.6062176;1.15;-0.5836648;1.189976;0.4499513;2.036231;0.3755769;2.051008;
637951519666847356;2240.366;4;6;3;0.2;1.4;946;3.17124735729387;0.6893654;1.621554;0.5896044;1.628471;-0.6062176;1.15;-0.5836648;1.189976;
637951519687552560;2242.429;4;6;3;0.2;1.4;2063;1.45419292292778;-0.6893655;1.621553;-0.6738286;1.690352;0.6893654;1.621554;0.5896044;1.628471;
637951519714529348;2245.128;4;6;3;0.2;1.4;2699;1.11152278621712;0.6062179;1.15;0.6310558;1.223253;-0.6893655;1.621553;-0.6738286;1.690352;
637951519772503917;2250.925;4;6;3;0.2;1.4;5797;0.517509056408487;-0.4499517;2.036231;-0.4757733;1.983943;0.6062179;1.15;0.6310558;1.223253;
637951519785497182;2252.225;4;6;3;0.2;1.4;1300;2.30769230769231;0.2394144;0.8422153;0.2463142;0.8526413;-0.4499517;2.036231;-0.4757733;1.983943;
637951519804601984;2254.135;4;6;2.5;0.3;1.4;1100;2.27272727272727;-0.2394138;0.8422151;-0.2833536;0.9183779;0;2.2;0.03036129;2.12209;
637951519815594748;2255.235;4;6;2.5;0.3;1.4;1099;2.27479526842584;0.4499513;2.036231;0.4351689;2.096213;-0.2394138;0.8422151;-0.2833536;0.9183779;
637951519827587764;2256.434;4;6;2.5;0.3;1.4;1199;2.08507089241034;-0.6062176;1.15;-0.5720998;1.233671;0.4499513;2.036231;0.4351689;2.096213;
637951519835589774;2257.234;4;6;2.5;0.3;1.4;800;3.125;0.6893654;1.621554;0.7116039;1.70344;-0.6062176;1.15;-0.5720998;1.233671;
637951519843581791;2258.033;4;6;2.5;0.3;1.4;800;3.125;-0.6893655;1.621553;-0.5727327;1.65726;0.6893654;1.621554;0.7116039;1.70344;
637951519870568572;2260.732;4;6;2.5;0.3;1.4;2699;0.926268988514265;0.6062179;1.15;0.556926;1.194303;-0.6893655;1.621553;-0.5727327;1.65726;
637951519899554431;2263.631;4;6;2.5;0.3;1.4;2899;0.862366333218351;-0.4499517;2.036231;-0.3957548;2.057065;0.6062179;1.15;0.556926;1.194303;
637951519920549707;2265.729;4;6;2.5;0.3;1.4;2099;1.19104335397808;0.2394144;0.8422153;0.1820004;0.9098274;-0.4499517;2.036231;-0.3957548;2.057065;
637951519955645192;2269.239;4;6;2;0.6;1.8;2510;0.796812749003984;-0.3078177;0.6542765;-0.2123629;0.8220379;0;2.4;-0.08048178;2.277825;
637951519974639968;2271.138;4;6;2;0.6;1.8;1899;1.05318588730911;0.5785087;2.18944;0.458803;2.025115;-0.3078177;0.6542765;-0.2123629;0.8220379;
637951519998625993;2273.538;4;6;2;0.6;1.8;2399;0.833680700291788;-0.7794226;1.05;-0.7331601;1.166971;0.5785087;2.18944;0.458803;2.025115;
637951520013619764;2275.036;4;6;2;0.6;1.8;1499;1.33422281521014;0.8863269;1.656283;0.7593616;1.739773;-0.7794226;1.05;-0.7331601;1.166971;
637951520028613535;2276.536;4;6;2;0.6;1.8;1499;1.33422281521014;-0.8863271;1.656283;-0.6160021;1.690225;0.8863269;1.656283;0.7593616;1.739773;
637951520040616555;2277.736;4;6;2;0.6;1.8;1200;1.66666666666667;0.779423;1.05;0.6743873;1.080551;-0.8863271;1.656283;-0.6160021;1.690225;
637951520050609065;2278.735;4;6;2;0.6;1.8;999;2.002002002002;-0.5785094;2.18944;-0.4931809;2.09148;0.779423;1.05;0.6743873;1.080551;
637951520063602331;2280.034;4;6;2;0.6;1.8;1300;1.53846153846154;0.3078185;0.6542768;0.1041135;0.7975444;-0.5785094;2.18944;-0.4931809;2.09148;
637951520104692665;2284.144;4;6;4;0.1;1.4;2810;1.42348754448399;-0.2394138;0.8422151;-0.23757;0.8737282;0;2.2;-0.02776853;2.178574;
637951520119686424;2285.643;4;6;4;0.1;1.4;1499;2.66844563042028;0.4499513;2.036231;0.4195245;2.041592;-0.2394138;0.8422151;-0.23757;0.8737282;
637951520133679948;2287.042;4;6;4;0.1;1.4;1399;2.85918513223731;-0.6062176;1.15;-0.5920045;1.177279;0.4499513;2.036231;0.4195245;2.041592;
637951520210649299;2294.739;4;6;4;0.1;1.4;7697;0.519682993374042;0.6893654;1.621554;0.7108017;1.592099;-0.6062176;1.15;-0.5920045;1.177279;
637951520226643318;2296.338;4;6;4;0.1;1.4;1600;2.5;-0.6893655;1.621553;-0.6732453;1.614936;0.6893654;1.621554;0.7108017;1.592099;
637951520263737388;2300.047;4;6;4;0.1;1.4;3709;1.07845780533837;0.6062179;1.15;0.5875901;1.165891;-0.6893655;1.621553;-0.6732453;1.614936;
637951520285727752;2302.247;4;6;4;0.1;1.4;2199;1.81900864029104;-0.4499517;2.036231;-0.4270034;2.041139;0.6062179;1.15;0.5875901;1.165891;
637951520308721459;2304.546;4;6;4;0.1;1.4;2299;1.73988690735102;0.2394144;0.8422153;0.2513705;0.8753166;-0.4499517;2.036231;-0.4270034;2.041139;
637951520908029684;2364.474;4;7;2;0.6;1.8;1200;1.66666666666667;-0.3078177;0.6542765;-0.2554282;0.8948256;0;2.4;-0.04109036;2.330072;
637951520917031950;2365.374;4;7;2;0.6;1.8;900;2.22222222222222;0.5785087;2.18944;0.4628083;2.017172;-0.3078177;0.6542765;-0.2554282;0.8948256;
637951520949120014;2368.583;4;7;2;0.6;1.8;3209;0.623247117482082;-0.7794226;1.05;-0.7546668;1.210052;0.5785087;2.18944;0.4628083;2.017172;
637951520958022255;2369.473;4;7;2;0.6;1.8;890;2.24719101123596;0.8863269;1.656283;0.5906602;1.607285;-0.7794226;1.05;-0.7546668;1.210052;
637951520971115543;2370.782;4;7;2;0.6;1.8;1309;1.52788388082506;-0.8863271;1.656283;-0.7339372;1.616338;0.8863269;1.656283;0.5906602;1.607285;
637951520982228338;2371.893;4;7;2;0.6;1.8;1111;1.8001800180018;0.779423;1.05;0.758408;1.233963;-0.8863271;1.656283;-0.7339372;1.616338;
637951520994101322;2373.081;4;7;2;0.6;1.8;1188;1.68350168350168;-0.5785094;2.18944;-0.5202692;2.081594;0.779423;1.05;0.758408;1.233963;
637951521005104090;2374.18;4;7;2;0.6;1.8;1100;1.81818181818182;0.3078185;0.6542768;0.294083;0.8661366;-0.5785094;2.18944;-0.5202692;2.081594;
637951521025089113;2376.18;4;7;1.5;1.1;2;999;1.5015015015015;-0.3420197;0.5603072;-0.2365575;0.7762994;0;2.5;0.007492539;2.11258;
637951521035091627;2377.179;4;7;1.5;1.1;2;1000;1.5;0.6427875;2.266045;0.386604;1.921902;-0.3420197;0.5603072;-0.2365575;0.7762994;
637951521044083891;2378.079;4;7;1.5;1.1;2;900;1.66666666666667;-0.8660251;0.9999995;-0.6246122;1.318523;0.6427875;2.266045;0.386604;1.921902;
637951521064083971;2380.078;4;7;1.5;1.1;2;1999;0.750375187593797;0.9848077;1.673648;0.546172;1.591873;-0.8660251;0.9999995;-0.6246122;1.318523;
637951521076064361;2381.277;4;7;1.5;1.1;2;1199;1.25104253544621;-0.9848078;1.673648;-0.7301831;1.706958;0.9848077;1.673648;0.546172;1.591873;
637951521087067131;2382.377;4;7;1.5;1.1;2;1100;1.36363636363636;0.8660256;1;0.6959535;1.229605;-0.9848078;1.673648;-0.7301831;1.706958;
637951521096169414;2383.287;4;7;1.5;1.1;2;911;1.64654226125137;-0.6427882;2.266044;-0.4457937;1.966511;0.8660256;1;0.6959535;1.229605;
637951521106161924;2384.287;4;7;1.5;1.1;2;999;1.5015015015015;0.3420205;0.5603075;0.3296673;1.03333;-0.6427882;2.266044;-0.4457937;1.966511;
637951521145146108;2388.185;4;7;4.5;0.1;2.2;2299;1.9573727707699;-0.3762217;0.4663379;-0.3666861;0.5136074;0;2.6;-0.04194852;2.606291;
637951521171382695;2390.815;4;7;4.5;0.1;2.2;2630;1.71102661596958;0.7070663;2.342649;0.7486814;2.320007;-0.3762217;0.4663379;-0.3666861;0.5136074;
637951521223225733;2395.993;4;7;4.5;0.1;2.2;5177;0.869229283368746;-0.9526277;0.9499994;-0.9276757;0.9664575;0.7070663;2.342649;0.7486814;2.320007;
637951521261215284;2399.791;4;7;4.5;0.1;2.2;3798;1.18483412322275;1.083289;1.691013;1.048057;1.688244;-0.9526277;0.9499994;-0.9276757;0.9664575;
637951521280200057;2401.69;4;7;4.5;0.1;2.2;1899;2.3696682464455;-1.083289;1.691012;-1.079706;1.695918;1.083289;1.691013;1.048057;1.688244;
637951521477344352;2421.403;4;7;4.5;0.1;2.2;19713;0.228275757114594;0.9526281;0.9500003;0.9489736;0.9996643;-1.083289;1.691012;-1.079706;1.695918;
637951521520329476;2425.702;4;7;4.5;0.1;2.2;4298;1.04699860400186;-0.7070671;2.342648;-0.6789221;2.326895;0.9526281;0.9500003;0.9489736;0.9996643;
637951521534314182;2427.101;4;7;4.5;0.1;2.2;1399;3.21658327376698;0.3762226;0.4663382;0.3594345;0.5131456;-0.7070671;2.342648;-0.6789221;2.326895;
637951521561420994;2429.811;4;7;2.5;0.3;1.4;1411;1.77179305457123;-0.2394138;0.8422151;-0.2287568;0.9717847;0;2.2;0.01371141;2.169003;
637951521572413752;2430.91;4;7;2.5;0.3;1.4;1099;2.27479526842584;0.4499513;2.036231;0.4174455;1.982253;-0.2394138;0.8422151;-0.2287568;0.9717847;
637951521583406518;2432.01;4;7;2.5;0.3;1.4;1099;2.27479526842584;-0.6062176;1.15;-0.5995467;1.267274;0.4499513;2.036231;0.4174455;1.982253;
637951521594399287;2433.109;4;7;2.5;0.3;1.4;1100;2.27272727272727;0.6893654;1.621554;0.5450748;1.614073;-0.6062176;1.15;-0.5995467;1.267274;
637951521605402051;2434.209;4;7;2.5;0.3;1.4;1100;2.27272727272727;-0.6893655;1.621553;-0.583515;1.567853;0.6893654;1.621554;0.5450748;1.614073;
637951521618385316;2435.508;4;7;2.5;0.3;1.4;1299;1.92455735180908;0.6062179;1.15;0.5141059;1.156281;-0.6893655;1.621553;-0.583515;1.567853;
637951521638380344;2437.507;4;7;2.5;0.3;1.4;1999;1.25062531265633;-0.4499517;2.036231;-0.4434717;2.080642;0.6062179;1.15;0.5141059;1.156281;
637951521650383362;2438.707;4;7;2.5;0.3;1.4;1200;2.08333333333333;0.2394144;0.8422153;0.2508925;0.9704706;-0.4499517;2.036231;-0.4434717;2.080642;
637951521669378137;2440.606;4;7;3;0.2;1.4;1000;3;-0.2394138;0.8422151;-0.1817504;0.8319752;0;2.2;-0.06063138;2.185181;
637951521699465695;2443.615;4;7;3;0.2;1.4;3010;0.996677740863787;0.4499513;2.036231;0.3666617;2.000113;-0.2394138;0.8422151;-0.1817504;0.8319752;
637951521709468214;2444.615;4;7;3;0.2;1.4;1000;3;-0.6062176;1.15;-0.5383806;1.178628;0.4499513;2.036231;0.3666617;2.000113;
637951521719460726;2445.615;4;7;3;0.2;1.4;999;3.003003003003;0.6893654;1.621554;0.6284982;1.632215;-0.6062176;1.15;-0.5383806;1.178628;
637951521731453742;2446.814;4;7;3;0.2;1.4;1199;2.50208507089241;-0.6893655;1.621553;-0.6901531;1.628999;0.6893654;1.621554;0.6284982;1.632215;
637951521755439772;2449.213;4;7;3;0.2;1.4;2399;1.25052105043768;0.6062179;1.15;0.5565553;1.188097;-0.6893655;1.621553;-0.6901531;1.628999;
637951521764442034;2450.112;4;7;3;0.2;1.4;899;3.33704115684093;-0.4499517;2.036231;-0.4709904;1.972935;0.6062179;1.15;0.5565553;1.188097;
637951521777435306;2451.412;4;7;3;0.2;1.4;1300;2.30769230769231;0.2394144;0.8422153;0.268987;0.8719476;-0.4499517;2.036231;-0.4709904;1.972935;
637951521813424349;2455.01;4;7;4;0.1;1.4;2400;1.66666666666667;-0.2394138;0.8422151;-0.2249058;0.8435882;0;2.2;0.01224181;2.151864;
637951521825427364;2456.211;4;7;4;0.1;1.4;1200;3.33333333333333;0.4499513;2.036231;0.4306929;2.029075;-0.2394138;0.8422151;-0.2249058;0.8435882;
637951521841410688;2457.809;4;7;4;0.1;1.4;1598;2.50312891113892;-0.6062176;1.15;-0.5827564;1.160274;0.4499513;2.036231;0.4306929;2.029075;
637951521854512095;2459.119;4;7;4;0.1;1.4;1310;3.05343511450382;0.6893654;1.621554;0.6870342;1.589492;-0.6062176;1.15;-0.5827564;1.160274;
637951521893500741;2463.018;4;7;4;0.1;1.4;3898;1.02616726526424;-0.6893655;1.621553;-0.6716253;1.593086;0.6893654;1.621554;0.6870342;1.589492;
637951521904099273;2464.085;4;7;4;0.1;1.4;1067;3.74882849109653;0.6062179;1.15;0.5788957;1.116772;-0.6893655;1.621553;-0.6716253;1.593086;
637951521917485915;2465.417;4;7;4;0.1;1.4;1332;3.003003003003;-0.4499517;2.036231;-0.4868858;2.011563;0.6062179;1.15;0.5788957;1.116772;
637951521947473455;2468.416;4;7;4;0.1;1.4;2999;1.33377792597533;0.2394144;0.8422153;0.2237925;0.821629;-0.4499517;2.036231;-0.4868858;2.011563;
637951521979461496;2471.614;4;7;3.5;0.2;2;1300;2.69230769230769;-0.3420197;0.5603072;-0.3208257;0.5709922;0;2.5;0.04729757;2.421293;
637951521993565041;2473.025;4;7;3.5;0.2;2;1411;2.48051027639972;0.6427875;2.266045;0.5953641;2.20686;-0.3420197;0.5603072;-0.3208257;0.5709922;
637951522009559064;2474.624;4;7;3.5;0.2;2;1599;2.18886804252658;-0.8660251;0.9999995;-0.8713204;1.012743;0.6427875;2.266045;0.5953641;2.20686;
637951522035545595;2477.222;4;7;3.5;0.2;2;2599;1.34667179684494;0.9848077;1.673648;0.965813;1.674472;-0.8660251;0.9999995;-0.8713204;1.012743;
637951522059651657;2479.632;4;7;3.5;0.2;2;2410;1.45228215767635;-0.9848078;1.673648;-0.885007;1.675225;0.9848077;1.673648;0.965813;1.674472;
637951522070644420;2480.732;4;7;3.5;0.2;2;1100;3.18181818181818;0.8660256;1;0.8819407;0.9571632;-0.9848078;1.673648;-0.885007;1.675225;
637951522087898757;2482.464;4;7;3.5;0.2;2;1732;2.02078521939954;-0.6427882;2.266044;-0.6062436;2.173226;0.8660256;1;0.8819407;0.9571632;
637951522102622460;2483.93;4;7;3.5;0.2;2;1466;2.38744884038199;0.3420205;0.5603075;0.3733922;0.5940344;-0.6427882;2.266044;-0.6062436;2.173226;
