637951534336663894;629.681;5;0;4.5;0.1;2.2;1350;3.33333333333333;-0.3762217;0.4663379;-0.3656337;0.513414;0;2.6;-0.009521781;2.642783;
637951534379318541;633.9395;5;0;4.5;0.1;2.2;4258;1.05683419445749;0.7070663;2.342649;0.7224792;2.345099;-0.3762217;0.4663379;-0.3656337;0.513414;
637951534461399179;642.147;5;0;4.5;0.1;2.2;8208;0.548245614035088;-0.9526277;0.9499994;-0.9254708;0.943596;0.7070663;2.342649;0.7224792;2.345099;
637951534508370984;646.8447;5;0;4.5;0.1;2.2;4698;0.957854406130268;1.083289;1.691013;1.076938;1.729986;-0.9526277;0.9499994;-0.9254708;0.943596;
637951534526365509;648.6437;5;0;4.5;0.1;2.2;1799;2.50138966092273;-1.083289;1.691012;-1.048753;1.72509;1.083289;1.691013;1.076938;1.729986;
637951534544350031;650.4429;5;0;4.5;0.1;2.2;1799;2.50138966092273;0.9526281;0.9500003;0.9301991;0.9890642;-1.083289;1.691012;-1.048753;1.72509;
637951534570346563;653.042;5;0;4.5;0.1;2.2;2599;1.73143516737207;-0.7070671;2.342648;-0.7011929;2.317105;0.9526281;0.9500003;0.9301991;0.9890642;
637951534586450702;654.6522;5;0;4.5;0.1;2.2;1610;2.79503105590062;0.3762226;0.4663382;0.3618198;0.4923681;-0.7070671;2.342648;-0.7011929;2.317105;
637951534627436701;658.7502;5;0;4;0.1;1.4;1699;2.35432607416127;-0.2394138;0.8422151;-0.2116599;0.8836844;0;2.2;0.01949782;2.197981;
637951534675418765;663.5486;5;0;4;0.1;1.4;4798;0.833680700291788;0.4499513;2.036231;0.4408152;2.056787;-0.2394138;0.8422151;-0.2116599;0.8836844;
637951534733383335;669.3455;5;0;4;0.1;1.4;5797;0.690012075211316;-0.6062176;1.15;-0.6072068;1.160318;0.4499513;2.036231;0.4408152;2.056787;
637951534798479700;675.8541;5;0;4;0.1;1.4;6509;0.614533722538024;0.6893654;1.621554;0.6822892;1.660676;-0.6062176;1.15;-0.6072068;1.160318;
637951534817464474;677.7532;5;0;4;0.1;1.4;1899;2.10637177461822;-0.6893655;1.621553;-0.6440308;1.622218;0.6893654;1.621554;0.6822892;1.660676;
637951534832448241;679.252;5;0;4;0.1;1.4;1499;2.66844563042028;0.6062179;1.15;0.5782405;1.170346;-0.6893655;1.621553;-0.6440308;1.622218;
637951534847462013;680.7523;5;0;4;0.1;1.4;1500;2.66666666666667;-0.4499517;2.036231;-0.424522;2.019268;0.6062179;1.15;0.5782405;1.170346;
637951534925524379;688.559;5;0;4;0.1;1.4;7807;0.512360701934162;0.2394144;0.8422153;0.2516252;0.8786978;-0.4499517;2.036231;-0.424522;2.019268;
637951534946515037;690.658;5;0;1.5;1.1;2;1461;1.02669404517454;-0.3420197;0.5603072;-0.1713878;0.8930008;0;2.5;0.1846607;2.006794;
637951534975503107;693.5565;5;0;1.5;1.1;2;2899;0.517419799931011;0.6427875;2.266045;0.5170004;1.802661;-0.3420197;0.5603072;-0.1713878;0.8930008;
637951534985495614;694.5562;5;0;1.5;1.1;2;1000;1.5;-0.8660251;0.9999995;-0.765091;1.429157;0.6427875;2.266045;0.5170004;1.802661;
637951535009601677;696.9661;5;0;1.5;1.1;2;2410;0.622406639004149;0.9848077;1.673648;0.7390947;1.592126;-0.8660251;0.9999995;-0.765091;1.429157;
637951535016603438;697.6658;5;0;1.5;1.1;2;700;2.14285714285714;-0.9848078;1.673648;-0.5718301;1.770133;0.9848077;1.673648;0.7390947;1.592126;
637951535024595446;698.4658;5;0;1.5;1.1;2;800;1.875;0.8660256;1;0.6516792;1.389089;-0.9848078;1.673648;-0.5718301;1.770133;
637951535047591229;700.7646;5;0;1.5;1.1;2;2299;0.652457590256633;-0.6427882;2.266044;-0.3030832;2.12198;0.8660256;1;0.6516792;1.389089;
637951535053582735;701.3644;5;0;1.5;1.1;2;600;2.5;0.3420205;0.5603075;0.2393643;1.093692;-0.6427882;2.266044;-0.3030832;2.12198;
637951535093562786;705.3624;5;0;2;0.6;1.8;2999;0.666888962987663;-0.3078177;0.6542765;-0.1803931;0.8511492;0;2.4;0.03729935;2.270272;
637951535116558565;707.6612;5;0;2;0.6;1.8;2299;0.869943453675511;0.5785087;2.18944;0.5444687;2.083852;-0.3078177;0.6542765;-0.1803931;0.8511492;
637951535128551583;708.8609;5;0;2;0.6;1.8;1200;1.66666666666667;-0.7794226;1.05;-0.625625;1.236723;0.5785087;2.18944;0.5444687;2.083852;
637951535156538617;711.6596;5;0;2;0.6;1.8;2799;0.714540907466952;0.8863269;1.656283;0.7150102;1.654699;-0.7794226;1.05;-0.625625;1.236723;
637951535165550880;712.5596;5;0;2;0.6;1.8;900;2.22222222222222;-0.8863271;1.656283;-0.7408791;1.83585;0.8863269;1.656283;0.7150102;1.654699;
637951535202630207;716.2687;5;0;2;0.6;1.8;3709;0.539228902669183;0.779423;1.05;0.7334167;1.143024;-0.8863271;1.656283;-0.7408791;1.83585;
637951535233617989;719.3672;5;0;2;0.6;1.8;3099;0.645369474023879;-0.5785094;2.18944;-0.4605095;2.092265;0.779423;1.05;0.7334167;1.143024;
637951535243610507;720.3668;5;0;2;0.6;1.8;1000;2;0.3078185;0.6542768;0.3348387;0.9529909;-0.5785094;2.18944;-0.4605095;2.092265;
637951535292595342;725.2646;5;0;3;0.2;1.4;1999;1.50075037518759;-0.2394138;0.8422151;-0.1889044;0.9109168;0;2.2;0.04611818;2.210988;
637951535310698598;727.075;5;0;3;0.2;1.4;1810;1.65745856353591;0.4499513;2.036231;0.4532136;2.042321;-0.2394138;0.8422151;-0.1889044;0.9109168;
637951535322689415;728.2744;5;0;3;0.2;1.4;1199;2.50208507089241;-0.6062176;1.15;-0.6167786;1.17181;0.4499513;2.036231;0.4532136;2.042321;
637951535334688344;729.4738;5;0;3;0.2;1.4;1199;2.50208507089241;0.6893654;1.621554;0.6102925;1.645616;-0.6062176;1.15;-0.6167786;1.17181;
637951535343680599;730.3734;5;0;3;0.2;1.4;900;3.33333333333333;-0.6893655;1.621553;-0.6809224;1.69083;0.6893654;1.621554;0.6102925;1.645616;
637951535352672863;731.2727;5;0;3;0.2;1.4;899;3.33704115684093;0.6062179;1.15;0.5620264;1.236067;-0.6893655;1.621553;-0.6809224;1.69083;
637951535366676383;732.6724;5;0;3;0.2;1.4;1400;2.14285714285714;-0.4499517;2.036231;-0.3717688;2.077816;0.6062179;1.15;0.5620264;1.236067;
637951535389662162;734.9712;5;0;3;0.2;1.4;2299;1.30491518051327;0.2394144;0.8422153;0.2432612;0.9011626;-0.4499517;2.036231;-0.3717688;2.077816;
637951535422650454;738.27;5;0;3.5;0.2;2;1900;1.84210526315789;-0.3420197;0.5603072;-0.2848958;0.6421438;0;2.5;0.03945536;2.454548;
637951535436643973;739.6693;5;0;3.5;0.2;2;1399;2.50178699070765;0.6427875;2.266045;0.7088767;2.279365;-0.3420197;0.5603072;-0.2848958;0.6421438;
637951535465741286;742.5787;5;0;3.5;0.2;2;2909;1.20316259883121;-0.8660251;0.9999995;-0.7859345;0.9982505;0.6427875;2.266045;0.7088767;2.279365;
637951535484736066;744.478;5;0;3.5;0.2;2;1899;1.84307530279094;0.9848077;1.673648;0.8863389;1.68352;-0.8660251;0.9999995;-0.7859345;0.9982505;
637951535493728325;745.3774;5;0;3.5;0.2;2;899;3.89321468298109;-0.9848078;1.673648;-0.9762212;1.740553;0.9848077;1.673648;0.8863389;1.68352;
637951535518714606;747.8765;5;0;3.5;0.2;2;2499;1.40056022408964;0.8660256;1;0.8556473;1.091081;-0.9848078;1.673648;-0.9762212;1.740553;
637951535527716870;748.7761;5;0;3.5;0.2;2;900;3.88888888888889;-0.6427882;2.266044;-0.5884217;2.309257;0.8660256;1;0.8556473;1.091081;
637951535542710631;750.2754;5;0;3.5;0.2;2;1499;2.33488992661775;0.3420205;0.5603075;0.2884245;0.6158979;-0.6427882;2.266044;-0.5884217;2.309257;
637951535566806698;752.6854;5;0;2.5;0.3;1.4;1310;1.90839694656489;-0.2394138;0.8422151;-0.1784326;0.8360107;0;2.2;0.06058014;2.126915;
637951535581800477;754.1845;5;0;2.5;0.3;1.4;1499;1.66777851901268;0.4499513;2.036231;0.450911;1.972959;-0.2394138;0.8422151;-0.1784326;0.8360107;
637951535591792977;755.1842;5;0;2.5;0.3;1.4;1000;2.5;-0.6062176;1.15;-0.5180222;1.205412;0.4499513;2.036231;0.450911;1.972959;
637951535618779763;757.8828;5;0;2.5;0.3;1.4;2699;0.926268988514265;0.6893654;1.621554;0.6365885;1.64629;-0.6062176;1.15;-0.5180222;1.205412;
637951535648772740;760.8817;5;0;2.5;0.3;1.4;2999;0.833611203734578;-0.6893655;1.621553;-0.5908484;1.729143;0.6893654;1.621554;0.6365885;1.64629;
637951535659765500;761.981;5;0;2.5;0.3;1.4;1099;2.27479526842584;0.6062179;1.15;0.7485781;1.139294;-0.6893655;1.621553;-0.5908484;1.729143;
637951535666765392;762.6809;5;0;2.5;0.3;1.4;700;3.57142857142857;-0.4499517;2.036231;-0.4688559;2.00127;0.6062179;1.15;0.7485781;1.139294;
637951535675766496;763.5805;5;0;2.5;0.3;1.4;900;2.77777777777778;0.2394144;0.8422153;0.2536187;0.9472446;-0.4499517;2.036231;-0.4688559;2.00127;
637951537476543032;943.654;5;1;3;0.2;1.4;2498;1.20096076861489;-0.2394138;0.8422151;-0.1939833;0.8614398;0;2.2;0.02292047;2.163657;
637951537493647328;945.3643;5;1;3;0.2;1.4;1710;1.75438596491228;0.4499513;2.036231;0.4270027;2.003008;-0.2394138;0.8422151;-0.1939833;0.8614398;
637951537505640343;946.5637;5;1;3;0.2;1.4;1199;2.50208507089241;-0.6062176;1.15;-0.6231596;1.202717;0.4499513;2.036231;0.4270027;2.003008;
637951537526634586;948.6628;5;1;3;0.2;1.4;2099;1.4292520247737;0.6893654;1.621554;0.6222554;1.61756;-0.6062176;1.15;-0.6231596;1.202717;
637951537550622293;951.062;5;1;3;0.2;1.4;2399;1.25052105043768;-0.6893655;1.621553;-0.6504915;1.627726;0.6893654;1.621554;0.6222554;1.61756;
637951537559623115;951.9613;5;1;3;0.2;1.4;899;3.33704115684093;0.6062179;1.15;0.6387477;1.160448;-0.6893655;1.621553;-0.6504915;1.627726;
637951537575617763;953.5606;5;1;3;0.2;1.4;1599;1.87617260787993;-0.4499517;2.036231;-0.3638422;1.997343;0.6062179;1.15;0.6387477;1.160448;
637951537589609715;954.96;5;1;3;0.2;1.4;1399;2.14438884917798;0.2394144;0.8422153;0.248158;0.9418342;-0.4499517;2.036231;-0.3638422;1.997343;
637951537623708072;958.3698;5;1;4;0.1;1.4;1899;2.10637177461822;-0.2394138;0.8422151;-0.2289688;0.8758659;0;2.2;0.02560121;2.207679;
637951537638691835;959.8687;5;1;4;0.1;1.4;1499;2.66844563042028;0.4499513;2.036231;0.4446435;2.020798;-0.2394138;0.8422151;-0.2289688;0.8758659;
637951537650694850;961.0683;5;1;4;0.1;1.4;1200;3.33333333333333;-0.6062176;1.15;-0.5672215;1.120015;0.4499513;2.036231;0.4446435;2.020798;
637951537677921698;963.7982;5;1;4;0.1;1.4;2730;1.46520146520147;0.6893654;1.621554;0.6547787;1.657508;-0.6062176;1.15;-0.5672215;1.120015;
637951537712790463;967.2775;5;1;4;0.1;1.4;3479;1.14975567691865;-0.6893655;1.621553;-0.6634901;1.624681;0.6893654;1.621554;0.6547787;1.657508;
637951537763753276;972.3742;5;1;4;0.1;1.4;5097;0.784775358053757;0.6062179;1.15;0.6014902;1.163012;-0.6893655;1.621553;-0.6634901;1.624681;
637951537783798315;974.3787;5;1;4;0.1;1.4;2004;1.99600798403194;-0.4499517;2.036231;-0.4439575;2.065469;0.6062179;1.15;0.6014902;1.163012;
637951537815736343;977.5719;5;1;4;0.1;1.4;3193;1.25274036955841;0.2394144;0.8422153;0.2375191;0.8890191;-0.4499517;2.036231;-0.4439575;2.065469;
637951537864708655;982.4695;5;1;3.5;0.2;2;3904;0.896516393442623;-0.3420197;0.5603072;-0.3214067;0.6000422;0;2.5;0.04600385;2.538222;
637951537872710667;983.2693;5;1;3.5;0.2;2;800;4.375;0.6427875;2.266045;0.6691797;2.22573;-0.3420197;0.5603072;-0.3214067;0.6000422;
637951537886704186;984.6691;5;1;3.5;0.2;2;1400;2.5;-0.8660251;0.9999995;-0.8108919;1.03876;0.6427875;2.266045;0.6691797;2.22573;
637951537908699711;986.8679;5;1;3.5;0.2;2;2199;1.59163256025466;0.9848077;1.673648;0.9743077;1.662632;-0.8660251;0.9999995;-0.8108919;1.03876;
637951537917797290;987.7783;5;1;3.5;0.2;2;910;3.84615384615385;-0.9848078;1.673648;-0.9547337;1.726067;0.9848077;1.673648;0.9743077;1.662632;
637951537936789446;989.6775;5;1;3.5;0.2;2;1899;1.84307530279094;0.8660256;1;0.8026281;1.017566;-0.9848078;1.673648;-0.9547337;1.726067;
637951537957084651;991.7133;5;1;3.5;0.2;2;2036;1.71905697445973;-0.6427882;2.266044;-0.5586919;2.212904;0.8660256;1;0.8026281;1.017566;
637951537968776903;992.8758;5;1;3.5;0.2;2;1162;3.01204819277108;0.3420205;0.5603075;0.3254517;0.5715787;-0.6427882;2.266044;-0.5586919;2.212904;
637951538017759221;997.7736;5;1;4.5;0.1;2.2;999;4.5045045045045;-0.3762217;0.4663379;-0.3604524;0.5099642;0;2.6;0.02353024;2.621504;
637951538029862262;998.9845;5;1;4.5;0.1;2.2;1211;3.7159372419488;0.7070663;2.342649;0.6905997;2.323844;-0.3762217;0.4663379;-0.3604524;0.5099642;
637951538044794624;1000.477;5;1;4.5;0.1;2.2;1493;3.01406563965171;-0.9526277;0.9499994;-0.9183547;0.9792765;0.7070663;2.342649;0.6905997;2.323844;
637951538054805879;1001.478;5;1;4.5;0.1;2.2;1000;4.5;1.083289;1.691013;1.040084;1.704445;-0.9526277;0.9499994;-0.9183547;0.9792765;
637951538095842669;1005.582;5;1;4.5;0.1;2.2;4104;1.09649122807018;-1.083289;1.691012;-1.100826;1.711704;1.083289;1.691013;1.040084;1.704445;
637951538135932752;1009.591;5;1;4.5;0.1;2.2;4009;1.12247443252681;0.9526281;0.9500003;0.943641;0.9616313;-1.083289;1.691012;-1.100826;1.711704;
637951538148976020;1010.895;5;1;4.5;0.1;2.2;1305;3.44827586206897;-0.7070671;2.342648;-0.7006206;2.383563;0.9526281;0.9500003;0.943641;0.9616313;
637951538166920539;1012.689;5;1;4.5;0.1;2.2;1794;2.50836120401338;0.3762226;0.4663382;0.3627073;0.4958973;-0.7070671;2.342648;-0.7006206;2.383563;
637951538193857310;1015.383;5;1;2;0.6;1.8;794;2.51889168765743;-0.3078177;0.6542765;-0.2582587;0.8218136;0;2.4;0.01532418;2.344136;
637951538202909585;1016.288;5;1;2;0.6;1.8;905;2.20994475138122;0.5785087;2.18944;0.5297883;2.109221;-0.3078177;0.6542765;-0.2582587;0.8218136;
637951538210901594;1017.087;5;1;2;0.6;1.8;799;2.50312891113892;-0.7794226;1.05;-0.6137021;1.168217;0.5785087;2.18944;0.5297883;2.109221;
637951538220894110;1018.087;5;1;2;0.6;1.8;999;2.002002002002;0.8863269;1.656283;0.9508011;1.661577;-0.7794226;1.05;-0.6137021;1.168217;
637951538241889381;1020.186;5;1;2;0.6;1.8;2099;0.952834683182468;-0.8863271;1.656283;-0.6727531;1.787836;0.8863269;1.656283;0.9508011;1.661577;
637951538250881644;1021.086;5;1;2;0.6;1.8;900;2.22222222222222;0.779423;1.05;0.7320212;1.047766;-0.8863271;1.656283;-0.6727531;1.787836;
637951538257883405;1021.786;5;1;2;0.6;1.8;700;2.85714285714286;-0.5785094;2.18944;-0.3658074;1.978817;0.779423;1.05;0.7320212;1.047766;
637951538267875916;1022.785;5;1;2;0.6;1.8;999;2.002002002002;0.3078185;0.6542768;0.36834;0.879297;-0.5785094;2.18944;-0.3658074;1.978817;
637951538284980215;1024.495;5;1;1.5;1.1;2;1006;1.49105367793241;-0.3420197;0.5603072;-0.2309581;0.961623;0;2.5;0.07072976;2.287844;
637951538293972476;1025.394;5;1;1.5;1.1;2;899;1.66852057842047;0.6427875;2.266045;0.646086;2.173731;-0.3420197;0.5603072;-0.2309581;0.961623;
637951538305965494;1026.594;5;1;1.5;1.1;2;1200;1.25;-0.8660251;0.9999995;-0.570139;1.316754;0.6427875;2.266045;0.646086;2.173731;
637951538313977499;1027.394;5;1;1.5;1.1;2;800;1.875;0.9848077;1.673648;0.9869897;1.739887;-0.8660251;0.9999995;-0.570139;1.316754;
637951538327961021;1028.793;5;1;1.5;1.1;2;1399;1.07219442458899;-0.9848078;1.673648;-0.5485317;1.815386;0.9848077;1.673648;0.9869897;1.739887;
637951538334202596;1029.425;5;1;1.5;1.1;2;631;2.37717908082409;0.8660256;1;0.5206734;1.419745;-0.9848078;1.673648;-0.5485317;1.815386;
637951538346945793;1030.692;5;1;1.5;1.1;2;1268;1.18296529968454;-0.6427882;2.266044;-0.194443;1.996705;0.8660256;1;0.5206734;1.419745;
637951538367947381;1032.792;5;1;1.5;1.1;2;2099;0.714626012386851;0.3420205;0.5603075;0.2888817;1.052266;-0.6427882;2.266044;-0.194443;1.996705;
637951538402301800;1036.234;5;1;2.5;0.3;1.4;844;2.96208530805687;-0.2394138;0.8422151;-0.2179445;0.9897157;0;2.2;0.01676938;2.246995;
637951538412034247;1037.2;5;1;2.5;0.3;1.4;966;2.5879917184265;0.4499513;2.036231;0.4005942;2.0071;-0.2394138;0.8422151;-0.2179445;0.9897157;
637951538424030592;1038.4;5;1;2.5;0.3;1.4;1199;2.08507089241034;-0.6062176;1.15;-0.526826;1.211806;0.4499513;2.036231;0.4005942;2.0071;
637951538437081950;1039.704;5;1;2.5;0.3;1.4;1305;1.91570881226054;0.6893654;1.621554;0.6540581;1.639886;-0.6062176;1.15;-0.526826;1.211806;
637951538449015140;1040.899;5;1;2.5;0.3;1.4;1194;2.09380234505863;-0.6893655;1.621553;-0.673889;1.686213;0.6893654;1.621554;0.6540581;1.639886;
637951538460019692;1041.998;5;1;2.5;0.3;1.4;1100;2.27272727272727;0.6062179;1.15;0.5695329;1.17464;-0.6893655;1.621553;-0.673889;1.686213;
637951538469061967;1042.903;5;1;2.5;0.3;1.4;905;2.76243093922652;-0.4499517;2.036231;-0.4343931;2.013123;0.6062179;1.15;0.5695329;1.17464;
637951538478004214;1043.797;5;1;2.5;0.3;1.4;894;2.79642058165548;0.2394144;0.8422153;0.2508241;0.97025;-0.4499517;2.036231;-0.4343931;2.013123;
637951539261277174;1122.122;5;2;4;0.1;1.4;1059;3.77714825306893;-0.2394138;0.8422151;-0.2407568;0.8845005;0;2.2;0.04534698;2.186478;
637951539272388948;1123.233;5;2;4;0.1;1.4;1111;3.6003600360036;0.4499513;2.036231;0.4211578;2.026187;-0.2394138;0.8422151;-0.2407568;0.8845005;
637951539326311436;1128.625;5;2;4;0.1;1.4;5392;0.741839762611276;-0.6062176;1.15;-0.578332;1.186612;0.4499513;2.036231;0.4211578;2.026187;
637951539355352257;1131.529;5;2;4;0.1;1.4;2904;1.37741046831956;0.6893654;1.621554;0.6569096;1.61696;-0.6062176;1.15;-0.578332;1.186612;
637951539366295007;1132.623;5;2;4;0.1;1.4;1094;3.6563071297989;-0.6893655;1.621553;-0.6742725;1.654892;0.6893654;1.621554;0.6569096;1.61696;
637951539412436601;1137.238;5;2;4;0.1;1.4;4614;0.866926744690074;0.6062179;1.15;0.5861431;1.133362;-0.6893655;1.621553;-0.6742725;1.654892;
637951539430481143;1139.043;5;2;4;0.1;1.4;1805;2.21606648199446;-0.4499517;2.036231;-0.4209004;2.042859;0.6062179;1.15;0.5861431;1.133362;
637951539440483652;1140.042;5;2;4;0.1;1.4;1000;4;0.2394144;0.8422153;0.2403854;0.8641717;-0.4499517;2.036231;-0.4209004;2.042859;
637951539472521707;1143.246;5;2;3;0.2;1.4;2504;1.19808306709265;-0.2394138;0.8422151;-0.212365;0.9162248;0;2.2;0.01492137;2.107735;
637951539509571030;1146.951;5;2;3;0.2;1.4;3704;0.809935205183585;0.4499513;2.036231;0.4618701;2.123493;-0.2394138;0.8422151;-0.212365;0.9162248;
637951539558653362;1151.859;5;2;3;0.2;1.4;4909;0.611122428193115;-0.6062176;1.15;-0.567036;1.207929;0.4499513;2.036231;0.4618701;2.123493;
637951539569536101;1152.948;5;2;3;0.2;1.4;1088;2.75735294117647;0.6893654;1.621554;0.642849;1.655218;-0.6062176;1.15;-0.567036;1.207929;
637951539592521879;1155.247;5;2;3;0.2;1.4;2299;1.30491518051327;-0.6893655;1.621553;-0.7007554;1.68357;0.6893654;1.621554;0.642849;1.655218;
637951539607515648;1156.746;5;2;3;0.2;1.4;1499;2.00133422281521;0.6062179;1.15;0.5803316;1.10105;-0.6893655;1.621553;-0.7007554;1.68357;
637951539620508915;1158.045;5;2;3;0.2;1.4;1299;2.3094688221709;-0.4499517;2.036231;-0.3970858;2.093277;0.6062179;1.15;0.5803316;1.10105;
637951539636621948;1159.656;5;2;3;0.2;1.4;1611;1.86219739292365;0.2394144;0.8422153;0.2607954;0.8324976;-0.4499517;2.036231;-0.3970858;2.093277;
637951539681906911;1164.191;5;2;4.5;0.1;2.2;1037;4.33944069431051;-0.3762217;0.4663379;-0.3698488;0.434054;0;2.6;0.006085829;2.579586;
637951539699589961;1165.953;5;2;4.5;0.1;2.2;1761;2.55536626916525;0.7070663;2.342649;0.6650831;2.315759;-0.3762217;0.4663379;-0.3698488;0.434054;
637951539737582710;1169.751;5;2;4.5;0.1;2.2;3799;1.18452224269545;-0.9526277;0.9499994;-0.9153799;0.9505602;0.7070663;2.342649;0.6650831;2.315759;
637951539789665800;1174.96;5;2;4.5;0.1;2.2;5208;0.864055299539171;1.083289;1.691013;1.072551;1.643345;-0.9526277;0.9499994;-0.9153799;0.9505602;
637951539826645097;1178.658;5;2;4.5;0.1;2.2;3698;1.21687398593835;-1.083289;1.691012;-1.043591;1.687831;1.083289;1.691013;1.072551;1.643345;
637951539845639876;1180.557;5;2;4.5;0.1;2.2;1899;2.3696682464455;0.9526281;0.9500003;0.9733697;0.9945022;-1.083289;1.691012;-1.043591;1.687831;
637951539872619867;1183.256;5;2;4.5;0.1;2.2;2699;1.66728417932568;-0.7070671;2.342648;-0.6786138;2.305935;0.9526281;0.9500003;0.9733697;0.9945022;
637951539899727694;1185.966;5;2;4.5;0.1;2.2;2710;1.66051660516605;0.3762226;0.4663382;0.3643274;0.5099779;-0.7070671;2.342648;-0.6786138;2.305935;
637951539953701261;1191.363;5;2;1.5;1.1;2;2199;0.682128240109141;-0.3420197;0.5603072;-0.2255587;0.8651661;0;2.5;0.02723191;2.325907;
637951539971755795;1193.168;5;2;1.5;1.1;2;1805;0.831024930747922;0.6427875;2.266045;0.441628;2.1102;-0.3420197;0.5603072;-0.2255587;0.8651661;
637951539982798579;1194.273;5;2;1.5;1.1;2;1105;1.35746606334842;-0.8660251;0.9999995;-0.6792097;1.367084;0.6427875;2.266045;0.441628;2.1102;
637951539994791594;1195.472;5;2;1.5;1.1;2;1199;1.25104253544621;0.9848077;1.673648;0.6008304;1.709469;-0.8660251;0.9999995;-0.6792097;1.367084;
637951540001793351;1196.172;5;2;1.5;1.1;2;700;2.14285714285714;-0.9848078;1.673648;-0.4610137;1.659678;0.9848077;1.673648;0.6008304;1.709469;
637951540012796118;1197.272;5;2;1.5;1.1;2;1100;1.36363636363636;0.8660256;1;0.4936338;1.386796;-0.9848078;1.673648;-0.4610137;1.659678;
637951540024839150;1198.476;5;2;1.5;1.1;2;1204;1.24584717607973;-0.6427882;2.266044;-0.3194245;2.124644;0.8660256;1;0.4936338;1.386796;
637951540035781896;1199.571;5;2;1.5;1.1;2;1095;1.36986301369863;0.3420205;0.5603075;0.2215327;0.9565799;-0.6427882;2.266044;-0.3194245;2.124644;
637951540051775918;1201.17;5;2;2.5;0.3;1.4;700;3.57142857142857;-0.2394138;0.8422151;-0.2981031;0.9799318;0;2.2;0.001253305;2.162314;
637951540058777680;1201.87;5;2;2.5;0.3;1.4;700;3.57142857142857;0.4499513;2.036231;0.4134836;1.965734;-0.2394138;0.8422151;-0.2981031;0.9799318;
637951540082873735;1204.28;5;2;2.5;0.3;1.4;2410;1.03734439834025;-0.6062176;1.15;-0.5647436;1.29397;0.4499513;2.036231;0.4134836;1.965734;
637951540100868261;1206.079;5;2;2.5;0.3;1.4;1800;1.38888888888889;0.6893654;1.621554;0.6803979;1.759398;-0.6062176;1.15;-0.5647436;1.29397;
637951540107800000;1206.772;5;2;2.5;0.3;1.4;693;3.60750360750361;-0.6893655;1.621553;-0.7158532;1.767947;0.6893654;1.621554;0.6803979;1.759398;
637951540123854040;1208.378;5;2;2.5;0.3;1.4;1606;1.55666251556663;0.6062179;1.15;0.6179584;1.286198;-0.6893655;1.621553;-0.7158532;1.767947;
637951540133846554;1209.377;5;2;2.5;0.3;1.4;999;2.5025025025025;-0.4499517;2.036231;-0.4169726;1.999944;0.6062179;1.15;0.6179584;1.286198;
637951540159843089;1211.976;5;2;2.5;0.3;1.4;2599;0.961908426317814;0.2394144;0.8422153;0.2405407;0.9424057;-0.4499517;2.036231;-0.4169726;1.999944;
637951540178067666;1213.806;5;2;3.5;0.2;2;830;4.21686746987952;-0.3420197;0.5603072;-0.4330543;0.5896013;0;2.5;0.01178561;2.469647;
637951540189940657;1214.986;5;2;3.5;0.2;2;1181;2.96359017781541;0.6427875;2.266045;0.6354705;2.329935;-0.3420197;0.5603072;-0.4330543;0.5896013;
637951540209985523;1216.99;5;2;3.5;0.2;2;2004;1.74650698602794;-0.8660251;0.9999995;-0.784711;1.044735;0.6427875;2.266045;0.6354705;2.329935;
637951540218927856;1217.885;5;2;3.5;0.2;2;894;3.91498881431767;0.9848077;1.673648;0.9265385;1.717664;-0.8660251;0.9999995;-0.784711;1.044735;
637951540239165496;1219.915;5;2;3.5;0.2;2;2030;1.72413793103448;-0.9848078;1.673648;-0.889199;1.699829;0.9848077;1.673648;0.9265385;1.717664;
637951540280065774;1223.998;5;2;3.5;0.2;2;4083;0.85721283370071;0.8660256;1;0.8586971;1.083998;-0.9848078;1.673648;-0.889199;1.699829;
637951540289008025;1224.893;5;2;3.5;0.2;2;895;3.91061452513966;-0.6427882;2.266044;-0.5965246;2.316202;0.8660256;1;0.8586971;1.083998;
637951540357989822;1231.79;5;2;3.5;0.2;2;6898;0.507393447376051;0.3420205;0.5603075;0.3230089;0.6397233;-0.6427882;2.266044;-0.5965246;2.316202;
637951540390968117;1235.088;5;2;2;0.6;1.8;1799;1.11172873818788;-0.3078177;0.6542765;-0.2902223;0.8616642;0;2.4;0.002425568;2.385018;
637951540400960628;1236.088;5;2;2;0.6;1.8;1000;2;0.5785087;2.18944;0.4719276;2.098693;-0.3078177;0.6542765;-0.2902223;0.8616642;
637951540420985664;1238.09;5;2;2;0.6;1.8;2002;0.999000999000999;-0.7794226;1.05;-0.6633206;1.201421;0.5785087;2.18944;0.4719276;2.098693;
637951540433968929;1239.387;5;2;2;0.6;1.8;1298;1.54083204930663;0.8863269;1.656283;0.7444801;1.605789;-0.7794226;1.05;-0.6633206;1.201421;
637951540442050955;1240.197;5;2;2;0.6;1.8;810;2.46913580246914;-0.8863271;1.656283;-0.7281412;1.634492;0.8863269;1.656283;0.7444801;1.605789;
637951540450042966;1240.996;5;2;2;0.6;1.8;799;2.50312891113892;0.779423;1.05;0.8506829;1.197035;-0.8863271;1.656283;-0.7281412;1.634492;
637951540462095996;1242.201;5;2;2;0.6;1.8;1205;1.6597510373444;-0.5785094;2.18944;-0.5778004;2.234126;0.779423;1.05;0.8506829;1.197035;
637951540468097506;1242.801;5;2;2;0.6;1.8;599;3.33889816360601;0.3078185;0.6542768;0.18198;0.8787446;-0.5785094;2.18944;-0.5778004;2.234126;
637951541418290586;1337.819;5;3;3.5;0.2;2;2399;1.45894122551063;-0.3420197;0.5603072;-0.4102549;0.6322954;0;2.5;0.05804123;2.563695;
637951541428393126;1338.829;5;3;3.5;0.2;2;1010;3.46534653465347;0.6427875;2.266045;0.6286426;2.252782;-0.3420197;0.5603072;-0.4102549;0.6322954;
637951541488358200;1344.827;5;3;3.5;0.2;2;5997;0.583625145906286;-0.8660251;0.9999995;-0.8416353;1.053773;0.6427875;2.266045;0.6286426;2.252782;
637951541497360464;1345.726;5;3;3.5;0.2;2;900;3.88888888888889;0.9848077;1.673648;0.9582576;1.638826;-0.8660251;0.9999995;-0.8416353;1.053773;
637951541506462749;1346.637;5;3;3.5;0.2;2;911;3.84193194291987;-0.9848078;1.673648;-0.9971154;1.662991;0.9848077;1.673648;0.9582576;1.638826;
637951541517465517;1347.736;5;3;3.5;0.2;2;1099;3.18471337579618;0.8660256;1;0.814865;0.9782467;-0.9848078;1.673648;-0.9971154;1.662991;
637951541533455484;1349.336;5;3;3.5;0.2;2;1599;2.18886804252658;-0.6427882;2.266044;-0.6030145;2.174905;0.8660256;1;0.814865;0.9782467;
637951541549565928;1350.946;5;3;3.5;0.2;2;1610;2.17391304347826;0.3420205;0.5603075;0.2683348;0.593186;-0.6427882;2.266044;-0.6030145;2.174905;
637951541568550697;1352.845;5;3;3;0.2;1.4;1099;2.72975432211101;-0.2394138;0.8422151;-0.2301096;0.930829;0;2.2;-0.02177497;2.245519;
637951541586553543;1354.645;5;3;3;0.2;1.4;1799;1.66759310728182;0.4499513;2.036231;0.4334743;2.052991;-0.2394138;0.8422151;-0.2301096;0.930829;
637951541596537756;1355.644;5;3;3;0.2;1.4;999;3.003003003003;-0.6062176;1.15;-0.6020744;1.147507;0.4499513;2.036231;0.4334743;2.052991;
637951541606547430;1356.644;5;3;3;0.2;1.4;1000;3;0.6893654;1.621554;0.6956878;1.63949;-0.6062176;1.15;-0.6020744;1.147507;
637951541624526942;1358.443;5;3;3;0.2;1.4;1799;1.66759310728182;-0.6893655;1.621553;-0.6091748;1.651377;0.6893654;1.621554;0.6956878;1.63949;
637951541654511654;1361.441;5;3;3;0.2;1.4;2999;1.00033344448149;0.6062179;1.15;0.5793705;1.234609;-0.6893655;1.621553;-0.6091748;1.651377;
637951541667795481;1362.777;5;3;3;0.2;1.4;1335;2.24719101123596;-0.4499517;2.036231;-0.5157948;2.090887;0.6062179;1.15;0.5793705;1.234609;
637951541723598082;1368.349;5;3;3;0.2;1.4;5573;0.538309707518392;0.2394144;0.8422153;0.224363;0.8890247;-0.4499517;2.036231;-0.5157948;2.090887;
637951541740591918;1370.049;5;3;4.5;0.1;2.2;854;5.26932084309134;-0.3762217;0.4663379;-0.3610403;0.4684346;0;2.6;0.009866923;2.554562;
637951541774579597;1373.447;5;3;4.5;0.1;2.2;3398;1.32430841671572;0.7070663;2.342649;0.7036295;2.379543;-0.3762217;0.4663379;-0.3610403;0.4684346;
637951541789612986;1374.951;5;3;4.5;0.1;2.2;1504;2.99202127659574;-0.9526277;0.9499994;-0.9529149;0.9705086;0.7070663;2.342649;0.7036295;2.379543;
637951541808567268;1376.846;5;3;4.5;0.1;2.2;1895;2.37467018469657;1.083289;1.691013;1.066059;1.710508;-0.9526277;0.9499994;-0.9529149;0.9705086;
637951541822550424;1378.245;5;3;4.5;0.1;2.2;1399;3.21658327376698;-1.083289;1.691012;-1.045124;1.695908;1.083289;1.691013;1.066059;1.710508;
637951541840594497;1380.049;5;3;4.5;0.1;2.2;1805;2.49307479224377;0.9526281;0.9500003;0.9034195;0.9520913;-1.083289;1.691012;-1.045124;1.695908;
637951541855647898;1381.554;5;3;4.5;0.1;2.2;1505;2.99003322259136;-0.7070671;2.342648;-0.6732996;2.32914;0.9526281;0.9500003;0.9034195;0.9520913;
637951541885644670;1384.554;5;3;4.5;0.1;2.2;2999;1.50050016672224;0.3762226;0.4663382;0.3298706;0.4764388;-0.7070671;2.342648;-0.6732996;2.32914;
637951541909628768;1386.953;5;3;2;0.6;1.8;1199;1.66805671392827;-0.3078177;0.6542765;-0.2969794;0.8144072;0;2.4;0.05341889;2.393607;
637951541926672277;1388.657;5;3;2;0.6;1.8;1704;1.17370892018779;0.5785087;2.18944;0.4526109;2.267692;-0.3078177;0.6542765;-0.2969794;0.8144072;
637951541933613843;1389.352;5;3;2;0.6;1.8;695;2.87769784172662;-0.7794226;1.05;-0.6288061;1.279049;0.5785087;2.18944;0.4526109;2.267692;
637951541947608873;1390.75;5;3;2;0.6;1.8;1399;1.42959256611866;0.8863269;1.656283;0.7419147;1.747193;-0.7794226;1.05;-0.6288061;1.279049;
637951541957600496;1391.75;5;3;2;0.6;1.8;1000;2;-0.8863271;1.656283;-0.7670041;1.701798;0.8863269;1.656283;0.7419147;1.747193;
637951541984700114;1394.46;5;3;2;0.6;1.8;2710;0.738007380073801;0.779423;1.05;0.6737718;1.273544;-0.8863271;1.656283;-0.7670041;1.701798;
637951541994702372;1395.459;5;3;2;0.6;1.8;1000;2;-0.5785094;2.18944;-0.40629;2.165257;0.779423;1.05;0.6737718;1.273544;
637951542004694630;1396.459;5;3;2;0.6;1.8;999;2.002002002002;0.3078185;0.6542768;0.2492095;0.8800936;-0.5785094;2.18944;-0.40629;2.165257;
637951542029680270;1398.958;5;3;4;0.1;1.4;1195;3.34728033472803;-0.2394138;0.8422151;-0.2512588;0.8812426;0;2.2;0.04920631;2.191773;
637951542049724800;1400.962;5;3;4;0.1;1.4;2004;1.99600798403194;0.4499513;2.036231;0.4663811;2.04663;-0.2394138;0.8422151;-0.2512588;0.8812426;
637951542135744215;1409.564;5;3;4;0.1;1.4;8602;0.465008137642409;-0.6062176;1.15;-0.5803216;1.159871;0.4499513;2.036231;0.4663811;2.04663;
637951542146736702;1410.664;5;3;4;0.1;1.4;1100;3.63636363636364;0.6893654;1.621554;0.6715444;1.600923;-0.6062176;1.15;-0.5803216;1.159871;
637951542156018797;1411.599;5;3;4;0.1;1.4;936;4.27350427350427;-0.6893655;1.621553;-0.7219502;1.605667;0.6893654;1.621554;0.6715444;1.600923;
637951542176173348;1413.614;5;3;4;0.1;1.4;2015;1.98511166253102;0.6062179;1.15;0.6381028;1.143422;-0.6893655;1.621553;-0.7219502;1.605667;
637951542208820721;1416.872;5;3;4;0.1;1.4;3257;1.22812404052809;-0.4499517;2.036231;-0.4281926;2.014901;0.6062179;1.15;0.6381028;1.143422;
637951542219273080;1417.924;5;3;4;0.1;1.4;1052;3.80228136882129;0.2394144;0.8422153;0.22826;0.8128502;-0.4499517;2.036231;-0.4281926;2.014901;
637951542233806368;1419.37;5;3;2.5;0.3;1.4;865;2.89017341040462;-0.2394138;0.8422151;-0.2645614;0.8217313;0;2.2;0.09411143;2.109548;
637951542239807720;1419.97;5;3;2.5;0.3;1.4;600;4.16666666666667;0.4499513;2.036231;0.4930357;1.943594;-0.2394138;0.8422151;-0.2645614;0.8217313;
637951542251800426;1421.17;5;3;2.5;0.3;1.4;1199;2.08507089241034;-0.6062176;1.15;-0.4988065;1.217132;0.4499513;2.036231;0.4930357;1.943594;
637951542256801554;1421.67;5;3;2.5;0.3;1.4;500;5;0.6893654;1.621554;0.6217468;1.512805;-0.6062176;1.15;-0.4988065;1.217132;
637951542276790495;1423.669;5;3;2.5;0.3;1.4;1999;1.25062531265633;-0.6893655;1.621553;-0.567261;1.649399;0.6893654;1.621554;0.6217468;1.512805;
637951542308895136;1426.879;5;3;2.5;0.3;1.4;3210;0.778816199376947;0.6062179;1.15;0.5580774;1.193844;-0.6893655;1.621553;-0.567261;1.649399;
637951542318278105;1427.825;5;3;2.5;0.3;1.4;946;2.64270613107822;-0.4499517;2.036231;-0.3326514;1.94489;0.6062179;1.15;0.5580774;1.193844;
637951542328883534;1428.878;5;3;2.5;0.3;1.4;1053;2.37416904083571;0.2394144;0.8422153;0.2224273;0.9050477;-0.4499517;2.036231;-0.3326514;1.94489;
637951542367974813;1432.787;5;3;1.5;1.1;2;3094;0.48480930833872;-0.3420197;0.5603072;-0.1781619;0.9555075;0;2.5;-0.001577051;2.435645;
637951542373966167;1433.387;5;3;1.5;1.1;2;600;2.5;0.6427875;2.266045;0.265434;1.989521;-0.3420197;0.5603072;-0.1781619;0.9555075;
637951542380967748;1434.086;5;3;1.5;1.1;2;699;2.14592274678112;-0.8660251;0.9999995;-0.6259589;1.1851;0.6427875;2.266045;0.265434;1.989521;
637951542386959101;1434.686;5;3;1.5;1.1;2;600;2.5;0.9848077;1.673648;0.5338454;1.647554;-0.8660251;0.9999995;-0.6259589;1.1851;
637951542396011149;1435.59;5;3;1.5;1.1;2;905;1.65745856353591;-0.9848078;1.673648;-0.6269182;1.747829;0.9848077;1.673648;0.5338454;1.647554;
637951542412004755;1437.19;5;3;1.5;1.1;2;1599;0.938086303939963;0.8660256;1;0.5622218;1.326026;-0.9848078;1.673648;-0.6269182;1.747829;
637951542426948137;1438.684;5;3;1.5;1.1;2;1494;1.00401606425703;-0.6427882;2.266044;-0.3932464;2.176845;0.8660256;1;0.5622218;1.326026;
637951542441991529;1440.188;5;3;1.5;1.1;2;1505;0.996677740863787;0.3420205;0.5603075;0.3454355;0.8403887;-0.6427882;2.266044;-0.3932464;2.176845;
637951543998677046;1595.857;5;4;2;0.6;1.8;1199;1.66805671392827;-0.3078177;0.6542765;-0.2196192;0.9291506;0;2.4;0.09279579;2.309748;
637951544004668388;1596.457;5;4;2;0.6;1.8;600;3.33333333333333;0.5785087;2.18944;0.5807855;2.197757;-0.3078177;0.6542765;-0.2196192;0.9291506;
637951544010719756;1597.061;5;4;2;0.6;1.8;604;3.3112582781457;-0.7794226;1.05;-0.8574907;1.248598;0.5785087;2.18944;0.5807855;2.197757;
637951544017671329;1597.756;5;4;2;0.6;1.8;695;2.87769784172662;0.8863269;1.656283;0.6867225;1.635456;-0.7794226;1.05;-0.8574907;1.248598;
637951544032774738;1599.267;5;4;2;0.6;1.8;1511;1.32362673726009;-0.8863271;1.656283;-0.6501366;1.607685;0.8863269;1.656283;0.6867225;1.635456;
637951544039766320;1599.966;5;4;2;0.6;1.8;699;2.86123032904149;0.779423;1.05;0.7974416;1.283469;-0.8863271;1.656283;-0.6501366;1.607685;
637951544049758571;1600.966;5;4;2;0.6;1.8;1000;2;-0.5785094;2.18944;-0.444467;2.13877;0.779423;1.05;0.7974416;1.283469;
637951544055759935;1601.566;5;4;2;0.6;1.8;600;3.33333333333333;0.3078185;0.6542768;0.3124082;0.7997084;-0.5785094;2.18944;-0.444467;2.13877;
637951544086746922;1604.664;5;4;3.5;0.2;2;1099;3.18471337579618;-0.3420197;0.5603072;-0.2456475;0.5566851;0;2.5;0.005867709;2.426107;
637951544094738729;1605.464;5;4;3.5;0.2;2;800;4.375;0.6427875;2.266045;0.6666225;2.256988;-0.3420197;0.5603072;-0.2456475;0.5566851;
637951544109842140;1606.974;5;4;3.5;0.2;2;1510;2.31788079470199;-0.8660251;0.9999995;-0.774062;1.016539;0.6427875;2.266045;0.6666225;2.256988;
637951544134837784;1609.473;5;4;3.5;0.2;2;2499;1.40056022408964;0.9848077;1.673648;0.977154;1.691398;-0.8660251;0.9999995;-0.774062;1.016539;
637951544158833203;1611.872;5;4;3.5;0.2;2;2399;1.45894122551063;-0.9848078;1.673648;-0.9213272;1.605391;0.9848077;1.673648;0.977154;1.691398;
637951544172816361;1613.271;5;4;3.5;0.2;2;1399;2.50178699070765;0.8660256;1;0.8156496;0.9818183;-0.9848078;1.673648;-0.9213272;1.605391;
637951544181818389;1614.171;5;4;3.5;0.2;2;900;3.88888888888889;-0.6427882;2.266044;-0.644723;2.294188;0.8660256;1;0.8156496;0.9818183;
637951544199802456;1615.97;5;4;3.5;0.2;2;1799;1.94552529182879;0.3420205;0.5603075;0.3103421;0.5916044;-0.6427882;2.266044;-0.644723;2.294188;
637951544223797871;1618.369;5;4;4;0.1;1.4;1100;3.63636363636364;-0.2394138;0.8422151;-0.2086807;0.8437796;0;2.2;-0.009112852;2.186123;
637951544237786112;1619.768;5;4;4;0.1;1.4;1399;2.85918513223731;0.4499513;2.036231;0.4491211;2.053909;-0.2394138;0.8422151;-0.2086807;0.8437796;
637951544253779086;1621.367;5;4;4;0.1;1.4;1599;2.50156347717323;-0.6062176;1.15;-0.6035538;1.151736;0.4499513;2.036231;0.4491211;2.053909;
637951544267892272;1622.778;5;4;4;0.1;1.4;1411;2.83486888731396;0.6893654;1.621554;0.6875401;1.622159;-0.6062176;1.15;-0.6035538;1.151736;
637951544278884796;1623.878;5;4;4;0.1;1.4;1099;3.63967242948135;-0.6893655;1.621553;-0.6743005;1.653594;0.6893654;1.621554;0.6875401;1.622159;
637951544304100703;1626.406;5;4;4;0.1;1.4;2529;1.58165282720443;0.6062179;1.15;0.5628;1.17233;-0.6893655;1.621553;-0.6743005;1.653594;
637951544321864714;1628.176;5;4;4;0.1;1.4;1769;2.26116449971735;-0.4499517;2.036231;-0.4121845;2.031645;0.6062179;1.15;0.5628;1.17233;
637951544331186821;1629.115;5;4;4;0.1;1.4;940;4.25531914893617;0.2394144;0.8422153;0.2675829;0.8114835;-0.4499517;2.036231;-0.4121845;2.031645;
637951544358843060;1631.874;5;4;3;0.2;1.4;1599;1.87617260787993;-0.2394138;0.8422151;-0.1768339;0.9192352;0;2.2;0.02166905;2.118178;
637951544377837354;1633.773;5;4;3;0.2;1.4;1899;1.57977883096367;0.4499513;2.036231;0.4519609;1.998189;-0.2394138;0.8422151;-0.1768339;0.9192352;
637951544390830286;1635.073;5;4;3;0.2;1.4;1299;2.3094688221709;-0.6062176;1.15;-0.6176341;1.216561;0.4499513;2.036231;0.4519609;1.998189;
637951544407824125;1636.771;5;4;3;0.2;1.4;1699;1.76574455562095;0.6893654;1.621554;0.6499411;1.654912;-0.6062176;1.15;-0.6176341;1.216561;
637951544416816155;1637.671;5;4;3;0.2;1.4;900;3.33333333333333;-0.6893655;1.621553;-0.7069571;1.618889;0.6893654;1.621554;0.6499411;1.654912;
637951544428918887;1638.881;5;4;3;0.2;1.4;1210;2.47933884297521;0.6062179;1.15;0.6136634;1.192411;-0.6893655;1.621553;-0.7069571;1.618889;
637951544439921373;1639.981;5;4;3;0.2;1.4;1100;2.72727272727273;-0.4499517;2.036231;-0.4586093;2.006829;0.6062179;1.15;0.6136634;1.192411;
637951544448913402;1640.881;5;4;3;0.2;1.4;900;3.33333333333333;0.2394144;0.8422153;0.2141322;0.8196393;-0.4499517;2.036231;-0.4586093;2.006829;
637951544462906564;1642.28;5;4;2.5;0.3;1.4;800;3.125;-0.2394138;0.8422151;-0.3042603;0.9201683;0;2.2;-0.006104465;2.087827;
637951544473899042;1643.38;5;4;2.5;0.3;1.4;1099;2.27479526842584;0.4499513;2.036231;0.3948188;2.017507;-0.2394138;0.8422151;-0.3042603;0.9201683;
637951544486901977;1644.679;5;4;2.5;0.3;1.4;1300;1.92307692307692;-0.6062176;1.15;-0.5211465;1.202183;0.4499513;2.036231;0.3948188;2.017507;
637951544502885587;1646.278;5;4;2.5;0.3;1.4;1599;1.56347717323327;0.6893654;1.621554;0.6341071;1.626147;-0.6062176;1.15;-0.5211465;1.202183;
637951544511887622;1647.178;5;4;2.5;0.3;1.4;900;2.77777777777778;-0.6893655;1.621553;-0.6051796;1.689565;0.6893654;1.621554;0.6341071;1.626147;
637951544519889429;1647.978;5;4;2.5;0.3;1.4;800;3.125;0.6062179;1.15;0.6164214;1.204507;-0.6893655;1.621553;-0.6051796;1.689565;
637951544532872363;1649.277;5;4;2.5;0.3;1.4;1299;1.92455735180908;-0.4499517;2.036231;-0.3620905;1.977484;0.6062179;1.15;0.6164214;1.204507;
637951544540874172;1650.077;5;4;2.5;0.3;1.4;800;3.125;0.2394144;0.8422153;0.1765999;0.8760498;-0.4499517;2.036231;-0.3620905;1.977484;
637951544569855770;1652.975;5;4;4.5;0.1;2.2;1399;3.21658327376698;-0.3762217;0.4663379;-0.3632235;0.5144746;0;2.6;0.003589082;2.584396;
637951544582969703;1654.286;5;4;4.5;0.1;2.2;1311;3.4324942791762;0.7070663;2.342649;0.7062047;2.321008;-0.3762217;0.4663379;-0.3632235;0.5144746;
637951544596952857;1655.685;5;4;4.5;0.1;2.2;1399;3.21658327376698;-0.9526277;0.9499994;-0.9177741;0.9388024;0.7070663;2.342649;0.7062047;2.321008;
637951544616948461;1657.684;5;4;4.5;0.1;2.2;1999;2.25112556278139;1.083289;1.691013;1.052205;1.697684;-0.9526277;0.9499994;-0.9177741;0.9388024;
637951544639941260;1659.983;5;4;4.5;0.1;2.2;2299;1.9573727707699;-1.083289;1.691012;-1.068547;1.69611;1.083289;1.691013;1.052205;1.697684;
637951544650931506;1661.083;5;4;4.5;0.1;2.2;1100;4.09090909090909;0.9526281;0.9500003;0.9706963;0.975184;-1.083289;1.691012;-1.068547;1.69611;
637951544662931264;1662.282;5;4;4.5;0.1;2.2;1199;3.75312760633862;-0.7070671;2.342648;-0.7175129;2.34149;0.9526281;0.9500003;0.9706963;0.975184;
637951544685921224;1664.581;5;4;4.5;0.1;2.2;2299;1.9573727707699;0.3762226;0.4663382;0.3936498;0.4842235;-0.7070671;2.342648;-0.7175129;2.34149;
637951544702025291;1666.191;5;4;1.5;1.1;2;1110;1.35135135135135;-0.3420197;0.5603072;-0.1869568;1.018168;0;2.5;0.1430239;2.034868;
637951544714017991;1667.391;5;4;1.5;1.1;2;1199;1.25104253544621;0.6427875;2.266045;0.4316414;2.029342;-0.3420197;0.5603072;-0.1869568;1.018168;
637951544723010026;1668.291;5;4;1.5;1.1;2;900;1.66666666666667;-0.8660251;0.9999995;-0.6659306;1.181802;0.6427875;2.266045;0.4316414;2.029342;
637951544728301221;1668.827;5;4;1.5;1.1;2;536;2.79850746268657;0.9848077;1.673648;0.4479277;1.624064;-0.8660251;0.9999995;-0.6659306;1.181802;
637951544743004542;1670.29;5;4;1.5;1.1;2;1463;1.02529049897471;-0.9848078;1.673648;-0.4976214;1.650936;0.9848077;1.673648;0.4479277;1.624064;
637951544750006124;1670.989;5;4;1.5;1.1;2;699;2.14592274678112;0.8660256;1;0.8633755;1.361886;-0.9848078;1.673648;-0.4976214;1.650936;
637951544781983344;1674.188;5;4;1.5;1.1;2;3199;0.468896530165677;-0.6427882;2.266044;-0.3866756;2.047471;0.8660256;1;0.8633755;1.361886;
637951544791985600;1675.187;5;4;1.5;1.1;2;1000;1.5;0.3420205;0.5603075;0.1541286;1.007879;-0.6427882;2.266044;-0.3866756;2.047471;
637951545546420509;1750.631;5;5;3;0.2;1.4;600;5;-0.2394138;0.8422151;-0.1799006;0.8896419;0;2.2;0.03299056;2.109893;
637951545560407308;1752.03;5;5;3;0.2;1.4;1399;2.14438884917798;0.4499513;2.036231;0.3744572;1.987592;-0.2394138;0.8422151;-0.1799006;0.8896419;
637951545571399790;1753.13;5;5;3;0.2;1.4;1100;2.72727272727273;-0.6062176;1.15;-0.5862246;1.232934;0.4499513;2.036231;0.3744572;1.987592;
637951545583392496;1754.329;5;5;3;0.2;1.4;1199;2.50208507089241;0.6893654;1.621554;0.6989995;1.71685;-0.6062176;1.15;-0.5862246;1.232934;
637951545597395658;1755.728;5;5;3;0.2;1.4;1399;2.14438884917798;-0.6893655;1.621553;-0.6777138;1.608466;0.6893654;1.621554;0.6989995;1.71685;
637951545638484939;1759.838;5;5;3;0.2;1.4;4109;0.730104648332928;0.6062179;1.15;0.5582922;1.136335;-0.6893655;1.621553;-0.6777138;1.608466;
637951545650477653;1761.037;5;5;3;0.2;1.4;1200;2.5;-0.4499517;2.036231;-0.3628326;2.001624;0.6062179;1.15;0.5582922;1.136335;
637951545662470353;1762.236;5;5;3;0.2;1.4;1199;2.50208507089241;0.2394144;0.8422153;0.2147433;0.8701329;-0.4499517;2.036231;-0.3628326;2.001624;
637951545674463055;1763.436;5;5;2.5;0.3;1.4;670;3.73134328358209;-0.2394138;0.8422151;-0.1747074;0.8880498;0;2.2;0.03159863;2.068826;
637951545689456447;1764.935;5;5;2.5;0.3;1.4;1499;1.66777851901268;0.4499513;2.036231;0.4421434;2.029016;-0.2394138;0.8422151;-0.1747074;0.8880498;
637951545699458705;1765.935;5;5;2.5;0.3;1.4;1000;2.5;-0.6062176;1.15;-0.5986218;1.214962;0.4499513;2.036231;0.4421434;2.029016;
637951545708450730;1766.834;5;5;2.5;0.3;1.4;899;2.78086763070078;0.6893654;1.621554;0.7164567;1.509775;-0.6062176;1.15;-0.5986218;1.214962;
637951545718442990;1767.834;5;5;2.5;0.3;1.4;1000;2.5;-0.6893655;1.621553;-0.5508308;1.609887;0.6893654;1.621554;0.7164567;1.509775;
637951545725444573;1768.534;5;5;2.5;0.3;1.4;700;3.57142857142857;0.6062179;1.15;0.6311017;1.272297;-0.6893655;1.621553;-0.5508308;1.609887;
637951545732446151;1769.234;5;5;2.5;0.3;1.4;700;3.57142857142857;-0.4499517;2.036231;-0.4197758;1.997638;0.6062179;1.15;0.6311017;1.272297;
637951545738547533;1769.844;5;5;2.5;0.3;1.4;611;4.09165302782324;0.2394144;0.8422153;0.1944364;0.8571119;-0.4499517;2.036231;-0.4197758;1.997638;
637951545764543402;1772.443;5;5;4.5;0.1;2.2;1000;4.5;-0.3762217;0.4663379;-0.4007076;0.4947081;0;2.6;0.01399034;2.567022;
637951545782537463;1774.242;5;5;4.5;0.1;2.2;1799;2.50138966092273;0.7070663;2.342649;0.6871557;2.318196;-0.3762217;0.4663379;-0.4007076;0.4947081;
637951545791869572;1775.184;5;5;4.5;0.1;2.2;942;4.77707006369427;-0.9526277;0.9499994;-0.9581434;0.9114921;0.7070663;2.342649;0.6871557;2.318196;
637951545809513556;1776.941;5;5;4.5;0.1;2.2;1757;2.56118383608423;1.083289;1.691013;1.038965;1.672337;-0.9526277;0.9499994;-0.9581434;0.9114921;
637951545818515587;1777.84;5;5;4.5;0.1;2.2;899;5.0055617352614;-1.083289;1.691012;-1.084226;1.704377;1.083289;1.691013;1.038965;1.672337;
637951545839505551;1779.94;5;5;4.5;0.1;2.2;2100;2.14285714285714;0.9526281;0.9500003;0.9438919;0.9967182;-1.083289;1.691012;-1.084226;1.704377;
637951545846505643;1780.639;5;5;4.5;0.1;2.2;699;6.43776824034335;-0.7070671;2.342648;-0.6734936;2.342297;0.9526281;0.9500003;0.9438919;0.9967182;
637951545878870563;1783.883;5;5;4.5;0.1;2.2;3244;1.38717632552404;0.3762226;0.4663382;0.3794241;0.4279068;-0.7070671;2.342648;-0.6734936;2.342297;
637951545894594120;1785.448;5;5;1.5;1.1;2;810;1.85185185185185;-0.3420197;0.5603072;-0.1858032;0.9294337;0;2.5;0.0006680591;2.298195;
637951545903586192;1786.348;5;5;1.5;1.1;2;900;1.66666666666667;0.6427875;2.266045;0.549555;2.061116;-0.3420197;0.5603072;-0.1858032;0.9294337;
637951545911575966;1787.147;5;5;1.5;1.1;2;800;1.875;-0.8660251;0.9999995;-0.8510436;1.227437;0.6427875;2.266045;0.549555;2.061116;
637951545916575049;1787.647;5;5;1.5;1.1;2;500;3;0.9848077;1.673648;0.441866;1.660993;-0.8660251;0.9999995;-0.8510436;1.227437;
637951545924520254;1788.441;5;5;1.5;1.1;2;794;1.88916876574307;-0.9848078;1.673648;-0.6759441;1.695916;0.9848077;1.673648;0.441866;1.660993;
637951545929578503;1788.947;5;5;1.5;1.1;2;506;2.96442687747036;0.8660256;1;0.5655602;1.311126;-0.9848078;1.673648;-0.6759441;1.695916;
637951545945570485;1790.546;5;5;1.5;1.1;2;1599;0.938086303939963;-0.6427882;2.266044;-0.3167197;2.022669;0.8660256;1;0.5655602;1.311126;
637951545963560474;1792.345;5;5;1.5;1.1;2;1799;0.833796553640912;0.3420205;0.5603075;0.3276542;1.060561;-0.6427882;2.266044;-0.3167197;2.022669;
637951545981560225;1794.145;5;5;2;0.6;1.8;1200;1.66666666666667;-0.3078177;0.6542765;-0.1709967;0.9172889;0;2.4;0.111675;2.121774;
637951545987550458;1794.744;5;5;2;0.6;1.8;599;3.33889816360601;0.5785087;2.18944;0.5092962;2.002887;-0.3078177;0.6542765;-0.1709967;0.9172889;
637951545992550676;1795.244;5;5;2;0.6;1.8;500;4;-0.7794226;1.05;-0.5538291;1.231377;0.5785087;2.18944;0.5092962;2.002887;
637951546003540956;1796.344;5;5;2;0.6;1.8;1100;1.81818181818182;0.8863269;1.656283;0.7249287;1.645446;-0.7794226;1.05;-0.5538291;1.231377;
637951546009583448;1796.947;5;5;2;0.6;1.8;604;3.3112582781457;-0.8863271;1.656283;-0.8866631;1.717072;0.8863269;1.656283;0.7249287;1.645446;
637951546014644589;1797.454;5;5;2;0.6;1.8;506;3.95256916996047;0.779423;1.05;0.7175493;1.343544;-0.8863271;1.656283;-0.8866631;1.717072;
637951546020645944;1798.054;5;5;2;0.6;1.8;600;3.33333333333333;-0.5785094;2.18944;-0.3272221;2.025586;0.779423;1.05;0.7175493;1.343544;
637951546031638423;1799.153;5;5;2;0.6;1.8;1099;1.81983621474067;0.3078185;0.6542768;0.2048012;0.8597064;-0.5785094;2.18944;-0.3272221;2.025586;
637951546059624743;1801.952;5;5;3.5;0.2;2;1599;2.18886804252658;-0.3420197;0.5603072;-0.304567;0.6340111;0;2.5;0.0514898;2.417634;
637951546071617451;1803.151;5;5;3.5;0.2;2;1199;2.91909924937448;0.6427875;2.266045;0.7241268;2.25215;-0.3420197;0.5603072;-0.304567;0.6340111;
637951546082619936;1804.251;5;5;3.5;0.2;2;1100;3.18181818181818;-0.8660251;0.9999995;-0.8226328;1.049608;0.6427875;2.266045;0.7241268;2.25215;
637951546089611511;1804.951;5;5;3.5;0.2;2;700;5;0.9848077;1.673648;1.034644;1.73388;-0.8660251;0.9999995;-0.8226328;1.049608;
637951546101604223;1806.15;5;5;3.5;0.2;2;1200;2.91666666666667;-0.9848078;1.673648;-0.9102158;1.623227;0.9848077;1.673648;1.034644;1.73388;
637951546124589410;1808.449;5;5;3.5;0.2;2;2299;1.52240104393214;0.8660256;1;0.8396733;1.038553;-0.9848078;1.673648;-0.9102158;1.623227;
637951546157586862;1811.748;5;5;3.5;0.2;2;3299;1.06092755380418;-0.6427882;2.266044;-0.6151178;2.300073;0.8660256;1;0.8396733;1.038553;
637951546168579343;1812.847;5;5;3.5;0.2;2;1099;3.18471337579618;0.3420205;0.5603075;0.359952;0.5697163;-0.6427882;2.266044;-0.6151178;2.300073;
637951546196675688;1815.657;5;5;4;0.1;1.4;2170;1.84331797235023;-0.2394138;0.8422151;-0.2060843;0.8610226;0;2.2;0.0321662;2.169447;
637951546213669528;1817.356;5;5;4;0.1;1.4;1699;2.35432607416127;0.4499513;2.036231;0.4555902;2.031915;-0.2394138;0.8422151;-0.2060843;0.8610226;
637951546228662911;1818.855;5;5;4;0.1;1.4;1499;2.66844563042028;-0.6062176;1.15;-0.5911896;1.169946;0.4499513;2.036231;0.4555902;2.031915;
637951546240085488;1820.005;5;5;4;0.1;1.4;1150;3.47826086956522;0.6893654;1.621554;0.6645476;1.582008;-0.6062176;1.15;-0.5911896;1.169946;
637951546246877024;1820.684;5;5;4;0.1;1.4;680;5.88235294117647;-0.6893655;1.621553;-0.6723106;1.577987;0.6893654;1.621554;0.6645476;1.582008;
637951546257639455;1821.754;5;5;4;0.1;1.4;1069;3.74181478016838;0.6062179;1.15;0.5850966;1.131986;-0.6893655;1.621553;-0.6723106;1.577987;
637951546263930876;1822.39;5;5;4;0.1;1.4;636;6.28930817610063;-0.4499517;2.036231;-0.4253094;2.007256;0.6062179;1.15;0.5850966;1.131986;
637951546281634872;1824.153;5;5;4;0.1;1.4;1763;2.2688598979013;0.2394144;0.8422153;0.238682;0.8804704;-0.4499517;2.036231;-0.4253094;2.007256;
637951547038395236;1899.833;5;6;3;0.2;1.4;537;5.58659217877095;-0.2394138;0.8422151;-0.2274849;0.9289143;0;2.2;-0.01126212;2.153395;
637951547066121499;1902.6;5;6;3;0.2;1.4;2766;1.08459869848156;0.4499513;2.036231;0.4074904;2.034615;-0.2394138;0.8422151;-0.2274849;0.9289143;
637951547079074425;1903.895;5;6;3;0.2;1.4;1295;2.31660231660232;-0.6062176;1.15;-0.6087468;1.191194;0.4499513;2.036231;0.4074904;2.034615;
637951547097058483;1905.693;5;6;3;0.2;1.4;1799;1.66759310728182;0.6893654;1.621554;0.6068674;1.630671;-0.6062176;1.15;-0.6087468;1.191194;
637951547108050965;1906.793;5;6;3;0.2;1.4;1100;2.72727272727273;-0.6893655;1.621553;-0.611072;1.683468;0.6893654;1.621554;0.6068674;1.630671;
637951547117103009;1907.698;5;6;3;0.2;1.4;905;3.31491712707182;0.6062179;1.15;0.6093371;1.092701;-0.6893655;1.621553;-0.611072;1.683468;
637951547123504455;1908.345;5;6;3;0.2;1.4;647;4.63678516228748;-0.4499517;2.036231;-0.3694439;2.095036;0.6062179;1.15;0.6093371;1.092701;
637951547142148665;1910.203;5;6;3;0.2;1.4;1858;1.61463939720129;0.2394144;0.8422153;0.1979236;0.8596576;-0.4499517;2.036231;-0.3694439;2.095036;
637951547167466925;1912.741;5;6;4;0.1;1.4;1439;2.77970813064628;-0.2394138;0.8422151;-0.233281;0.7986643;0;2.2;0.02081251;2.197721;
637951547180139783;1914.001;5;6;4;0.1;1.4;1260;3.17460317460317;0.4499513;2.036231;0.4278516;2.047604;-0.2394138;0.8422151;-0.233281;0.7986643;
637951547202123129;1916.2;5;6;4;0.1;1.4;2199;1.81900864029104;-0.6062176;1.15;-0.5578824;1.137605;0.4499513;2.036231;0.4278516;2.047604;
637951547215215600;1917.509;5;6;4;0.1;1.4;1309;3.05576776165011;0.6893654;1.621554;0.6723766;1.661848;-0.6062176;1.15;-0.5578824;1.137605;
637951547258215590;1921.809;5;6;4;0.1;1.4;4300;0.930232558139535;-0.6893655;1.621553;-0.6728737;1.622188;0.6893654;1.621554;0.6723766;1.661848;
637951547272208750;1923.208;5;6;4;0.1;1.4;1399;2.85918513223731;0.6062179;1.15;0.6069971;1.177047;-0.6893655;1.621553;-0.6728737;1.622188;
637951547286191909;1924.607;5;6;4;0.1;1.4;1399;2.85918513223731;-0.4499517;2.036231;-0.4280035;2.003294;0.6062179;1.15;0.6069971;1.177047;
637951547298244626;1925.812;5;6;4;0.1;1.4;1205;3.3195020746888;0.2394144;0.8422153;0.2457736;0.8701288;-0.4499517;2.036231;-0.4280035;2.003294;
637951547319179356;1927.906;5;6;3.5;0.2;2;1099;3.18471337579618;-0.3420197;0.5603072;-0.3128537;0.5969279;0;2.5;0.06756879;2.46416;
637951547340284123;1930.016;5;6;3.5;0.2;2;2110;1.65876777251185;0.6427875;2.266045;0.5945172;2.276285;-0.3420197;0.5603072;-0.3128537;0.5969279;
637951547364269538;1932.415;5;6;3.5;0.2;2;2399;1.45894122551063;-0.8660251;0.9999995;-0.9123595;0.9483899;0.6427875;2.266045;0.5945172;2.276285;
637951547374321810;1933.42;5;6;3.5;0.2;2;1005;3.48258706467662;0.9848077;1.673648;0.8918324;1.692443;-0.8660251;0.9999995;-0.9123595;0.9483899;
637951547384254052;1934.414;5;6;3.5;0.2;2;994;3.52112676056338;-0.9848078;1.673648;-0.9718843;1.651303;0.9848077;1.673648;0.8918324;1.692443;
637951547401257883;1936.113;5;6;3.5;0.2;2;1699;2.06003531489111;0.8660256;1;0.8319666;1.076938;-0.9848078;1.673648;-0.9718843;1.651303;
637951547407659336;1936.762;5;6;3.5;0.2;2;649;5.39291217257319;-0.6427882;2.266044;-0.6113339;2.185702;0.8660256;1;0.8319666;1.076938;
637951547417461550;1937.742;5;6;3.5;0.2;2;980;3.57142857142857;0.3420205;0.5603075;0.2628553;0.6213059;-0.6427882;2.266044;-0.6113339;2.185702;
637951547462321672;1942.221;5;6;1.5;1.1;2;2510;0.597609561752988;-0.3420197;0.5603072;-0.172689;0.885511;0;2.5;0.01751242;2.384898;
637951547469373274;1942.926;5;6;1.5;1.1;2;705;2.12765957446809;0.6427875;2.266045;0.3778052;1.995468;-0.3420197;0.5603072;-0.172689;0.885511;
637951547477365075;1943.726;5;6;1.5;1.1;2;800;1.875;-0.8660251;0.9999995;-0.5477962;1.419589;0.6427875;2.266045;0.3778052;1.995468;
637951547488317547;1944.82;5;6;1.5;1.1;2;1094;1.37111517367459;0.9848077;1.673648;0.4790624;1.727945;-0.8660251;0.9999995;-0.5477962;1.419589;
637951547497309578;1945.72;5;6;1.5;1.1;2;899;1.66852057842047;-0.9848078;1.673648;-0.8257871;1.76747;0.9848077;1.673648;0.4790624;1.727945;
637951547505311385;1946.52;5;6;1.5;1.1;2;800;1.875;0.8660256;1;0.8345219;1.293307;-0.9848078;1.673648;-0.8257871;1.76747;
637951547511352751;1947.124;5;6;1.5;1.1;2;604;2.48344370860927;-0.6427882;2.266044;-0.3742494;2.05371;0.8660256;1;0.8345219;1.293307;
637951547517304093;1947.719;5;6;1.5;1.1;2;595;2.52100840336134;0.3420205;0.5603075;0.2516719;1.046166;-0.6427882;2.266044;-0.3742494;2.05371;
637951547536293523;1949.618;5;6;2.5;0.3;1.4;700;3.57142857142857;-0.2394138;0.8422151;-0.2302292;0.9671733;0;2.2;-0.01352563;2.170654;
637951547550394534;1951.028;5;6;2.5;0.3;1.4;1410;1.77304964539007;0.4499513;2.036231;0.3923677;1.98684;-0.2394138;0.8422151;-0.2302292;0.9671733;
637951547569388824;1952.927;5;6;2.5;0.3;1.4;1899;1.31648235913639;-0.6062176;1.15;-0.5255251;1.148288;0.4499513;2.036231;0.3923677;1.98684;
637951547581381533;1954.127;5;6;2.5;0.3;1.4;1200;2.08333333333333;0.6893654;1.621554;0.5597083;1.625696;-0.6062176;1.15;-0.5255251;1.148288;
637951547591381683;1955.127;5;6;2.5;0.3;1.4;1000;2.5;-0.6893655;1.621553;-0.5495572;1.579815;0.6893654;1.621554;0.5597083;1.625696;
637951547609369224;1956.926;5;6;2.5;0.3;1.4;1799;1.38966092273485;0.6062179;1.15;0.5490944;1.18899;-0.6893655;1.621553;-0.5495572;1.579815;
637951547616367147;1957.625;5;6;2.5;0.3;1.4;700;3.57142857142857;-0.4499517;2.036231;-0.4975424;1.985654;0.6062179;1.15;0.5490944;1.18899;
637951547625360601;1958.525;5;6;2.5;0.3;1.4;900;2.77777777777778;0.2394144;0.8422153;0.2597687;0.9400029;-0.4499517;2.036231;-0.4975424;1.985654;
637951547639356886;1959.925;5;6;2;0.6;1.8;700;2.85714285714286;-0.3078177;0.6542765;-0.2212341;0.9055743;0;2.4;-0.005233541;2.245634;
637951547646748554;1960.671;5;6;2;0.6;1.8;746;2.68096514745308;0.5785087;2.18944;0.8276297;2.23446;-0.3078177;0.6542765;-0.2212341;0.9055743;
637951547652399827;1961.229;5;6;2;0.6;1.8;558;3.584229390681;-0.7794226;1.05;-0.7728773;1.308256;0.5785087;2.18944;0.8276297;2.23446;
637951547662342072;1962.223;5;6;2;0.6;1.8;994;2.01207243460765;0.8863269;1.656283;0.6933913;1.620588;-0.7794226;1.05;-0.7728773;1.308256;
637951547673344558;1963.323;5;6;2;0.6;1.8;1100;1.81818181818182;-0.8863271;1.656283;-0.6011878;1.593134;0.8863269;1.656283;0.6933913;1.620588;
637951547682336590;1964.223;5;6;2;0.6;1.8;900;2.22222222222222;0.779423;1.05;0.6842814;1.184446;-0.8863271;1.656283;-0.6011878;1.593134;
637951547691438647;1965.133;5;6;2;0.6;1.8;910;2.1978021978022;-0.5785094;2.18944;-0.4851073;2.063116;0.779423;1.05;0.6842814;1.184446;
637951547697379986;1965.727;5;6;2;0.6;1.8;594;3.36700336700337;0.3078185;0.6542768;0.2911965;0.8506228;-0.5785094;2.18944;-0.4851073;2.063116;
637951547745420834;1970.531;5;6;4.5;0.1;2.2;3099;1.45208131655373;-0.3762217;0.4663379;-0.3708498;0.489415;0;2.6;-0.005492896;2.567971;
637951547758413766;1971.83;5;6;4.5;0.1;2.2;1299;3.46420323325635;0.7070663;2.342649;0.6976718;2.317892;-0.3762217;0.4663379;-0.3708498;0.489415;
637951547771406700;1973.129;5;6;4.5;0.1;2.2;1299;3.46420323325635;-0.9526277;0.9499994;-0.9070983;0.9304959;0.7070663;2.342649;0.6976718;2.317892;
637951547790400990;1975.029;5;6;4.5;0.1;2.2;1900;2.36842105263158;1.083289;1.691013;1.086429;1.72424;-0.9526277;0.9499994;-0.9070983;0.9304959;
637951547826379113;1978.627;5;6;4.5;0.1;2.2;3598;1.25069483046137;-1.083289;1.691012;-1.051972;1.65432;1.083289;1.691013;1.086429;1.72424;
637951547839372055;1979.926;5;6;4.5;0.1;2.2;1299;3.46420323325635;0.9526281;0.9500003;0.9075446;0.9711649;-1.083289;1.691012;-1.051972;1.65432;
637951547866528179;1982.642;5;6;4.5;0.1;2.2;2715;1.65745856353591;-0.7070671;2.342648;-0.7123688;2.387983;0.9526281;0.9500003;0.9075446;0.9711649;
637951547891463810;1985.135;5;6;4.5;0.1;2.2;2494;1.80433039294306;0.3762226;0.4663382;0.3758778;0.4656351;-0.7070671;2.342648;-0.7123688;2.387983;
637951548628796053;2058.868;5;7;4;0.1;1.4;1410;2.83687943262411;-0.2394138;0.8422151;-0.2402385;0.8653294;0;2.2;-0.03673414;2.220789;
637951548641788984;2060.168;5;7;4;0.1;1.4;1300;3.07692307692308;0.4499513;2.036231;0.413617;2.054043;-0.2394138;0.8422151;-0.2402385;0.8653294;
637951548648120417;2060.808;5;7;4;0.1;1.4;640;6.25;-0.6062176;1.15;-0.5670218;1.168756;0.4499513;2.036231;0.413617;2.054043;
637951548659002871;2061.897;5;7;4;0.1;1.4;1088;3.67647058823529;0.6893654;1.621554;0.6981516;1.670523;-0.6062176;1.15;-0.5670218;1.168756;
637951548676766881;2063.666;5;7;4;0.1;1.4;1769;2.26116449971735;-0.6893655;1.621553;-0.6872691;1.648276;0.6893654;1.621554;0.6981516;1.670523;
637951548683048299;2064.301;5;7;4;0.1;1.4;635;6.2992125984252;0.6062179;1.15;0.5840476;1.194506;-0.6893655;1.621553;-0.6872691;1.648276;
637951548696763298;2065.665;5;7;4;0.1;1.4;1364;2.93255131964809;-0.4499517;2.036231;-0.4756811;2.008235;0.6062179;1.15;0.5840476;1.194506;
637951548718748262;2067.864;5;7;4;0.1;1.4;2199;1.81900864029104;0.2394144;0.8422153;0.2700759;0.8337064;-0.4499517;2.036231;-0.4756811;2.008235;
637951548742741216;2070.263;5;7;2;0.6;1.8;800;2.5;-0.3078177;0.6542765;-0.3476819;0.8094724;0;2.4;-0.04634208;2.226574;
637951548751732292;2071.163;5;7;2;0.6;1.8;900;2.22222222222222;0.5785087;2.18944;0.3839914;2.173008;-0.3078177;0.6542765;-0.3476819;0.8094724;
637951548757735443;2071.762;5;7;2;0.6;1.8;600;3.33333333333333;-0.7794226;1.05;-0.7772856;1.141995;0.5785087;2.18944;0.3839914;2.173008;
637951548762848675;2072.273;5;7;2;0.6;1.8;511;3.91389432485323;0.8863269;1.656283;0.6008411;1.708761;-0.7794226;1.05;-0.7772856;1.141995;
637951548769841722;2072.973;5;7;2;0.6;1.8;699;2.86123032904149;-0.8863271;1.656283;-0.7045808;1.831283;0.8863269;1.656283;0.6008411;1.708761;
637951548786835559;2074.672;5;7;2;0.6;1.8;1699;1.17716303708064;0.779423;1.05;0.6774838;1.314613;-0.8863271;1.656283;-0.7045808;1.831283;
637951548801828944;2076.172;5;7;2;0.6;1.8;1500;1.33333333333333;-0.5785094;2.18944;-0.4003182;2.097948;0.779423;1.05;0.6774838;1.314613;
637951548816812325;2077.671;5;7;2;0.6;1.8;1499;1.33422281521014;0.3078185;0.6542768;0.1911857;0.8335572;-0.5785094;2.18944;-0.4003182;2.097948;
637951548831045553;2079.1;5;7;3;0.2;1.4;729;4.11522633744856;-0.2394138;0.8422151;-0.2000253;0.7671789;0;2.2;-0.01638061;2.278552;
637951548843808425;2080.37;5;7;3;0.2;1.4;1270;2.36220472440945;0.4499513;2.036231;0.3642071;1.998814;-0.2394138;0.8422151;-0.2000253;0.7671789;
637951548853800681;2081.369;5;7;3;0.2;1.4;999;3.003003003003;-0.6062176;1.15;-0.6832065;1.200461;0.4499513;2.036231;0.3642071;1.998814;
637951548860032087;2081.999;5;7;3;0.2;1.4;630;4.76190476190476;0.6893654;1.621554;0.5921988;1.598274;-0.6062176;1.15;-0.6832065;1.200461;
637951548872784966;2083.268;5;7;3;0.2;1.4;1269;2.36406619385343;-0.6893655;1.621553;-0.5951606;1.644212;0.6893654;1.621554;0.5921988;1.598274;
637951548889788806;2084.967;5;7;3;0.2;1.4;1699;1.76574455562095;0.6062179;1.15;0.538334;1.162645;-0.6893655;1.621553;-0.5951606;1.644212;
637951548911883796;2087.177;5;7;3;0.2;1.4;2210;1.35746606334842;-0.4499517;2.036231;-0.4152128;2.022558;0.6062179;1.15;0.538334;1.162645;
637951548928877632;2088.877;5;7;3;0.2;1.4;1699;1.76574455562095;0.2394144;0.8422153;0.1879248;0.9271497;-0.4499517;2.036231;-0.4152128;2.022558;
637951548944871242;2090.476;5;7;2.5;0.3;1.4;664;3.76506024096386;-0.2394138;0.8422151;-0.1740296;0.9770643;0;2.2;-0.04693217;2.33217;
637951548960864864;2092.075;5;7;2.5;0.3;1.4;1599;1.56347717323327;0.4499513;2.036231;0.3486575;2.029584;-0.2394138;0.8422151;-0.1740296;0.9770643;
637951548977858694;2093.775;5;7;2.5;0.3;1.4;1699;1.47145379635079;-0.6062176;1.15;-0.5930237;1.273011;0.4499513;2.036231;0.3486575;2.029584;
637951548993852305;2095.374;5;7;2.5;0.3;1.4;1599;1.56347717323327;0.6893654;1.621554;0.5711435;1.643258;-0.6062176;1.15;-0.5930237;1.273011;
637951549011836369;2097.173;5;7;2.5;0.3;1.4;1799;1.38966092273485;-0.6893655;1.621553;-0.542705;1.613752;0.6893654;1.621554;0.5711435;1.643258;
637951549023839074;2098.372;5;7;2.5;0.3;1.4;1199;2.08507089241034;0.6062179;1.15;0.5338587;1.22471;-0.6893655;1.621553;-0.542705;1.613752;
637951549034831556;2099.472;5;7;2.5;0.3;1.4;1099;2.27479526842584;-0.4499517;2.036231;-0.5026157;2.144928;0.6062179;1.15;0.5338587;1.22471;
637951549048824718;2100.871;5;7;2.5;0.3;1.4;1399;1.78699070764832;0.2394144;0.8422153;0.2398956;0.9876873;-0.4499517;2.036231;-0.5026157;2.144928;
637951549065932186;2102.582;5;7;1.5;1.1;2;811;1.84956843403206;-0.3420197;0.5603072;-0.2209432;1.011946;0;2.5;0.002539502;2.25059;
637951549073921933;2103.381;5;7;1.5;1.1;2;799;1.87734668335419;0.6427875;2.266045;0.4334455;2.16654;-0.3420197;0.5603072;-0.2209432;1.011946;
637951549079922430;2103.981;5;7;1.5;1.1;2;600;2.5;-0.8660251;0.9999995;-0.5970281;1.429205;0.6427875;2.266045;0.4334455;2.16654;
637951549085254948;2104.521;5;7;1.5;1.1;2;540;2.77777777777778;0.9848077;1.673648;0.4397143;1.642894;-0.8660251;0.9999995;-0.5970281;1.429205;
637951549092913342;2105.281;5;7;1.5;1.1;2;759;1.97628458498024;-0.9848078;1.673648;-0.6087064;1.755091;0.9848077;1.673648;0.4397143;1.642894;
637951549111907628;2107.179;5;7;1.5;1.1;2;1899;0.789889415481833;0.8660256;1;0.5182234;1.349782;-0.9848078;1.673648;-0.6087064;1.755091;
637951549118899207;2107.879;5;7;1.5;1.1;2;700;2.14285714285714;-0.6427882;2.266044;-0.4167274;2.270681;0.8660256;1;0.5182234;1.349782;
637951549126901015;2108.679;5;7;1.5;1.1;2;800;1.875;0.3420205;0.5603075;0.369273;0.9792572;-0.6427882;2.266044;-0.4167274;2.270681;
637951549170878154;2113.077;5;7;3.5;0.2;2;3399;1.02971462194763;-0.3420197;0.5603072;-0.3063087;0.6242814;0;2.5;0.01880866;2.518196;
637951549178988641;2113.888;5;7;3.5;0.2;2;811;4.31565967940814;0.6427875;2.266045;0.5714288;2.268649;-0.3420197;0.5603072;-0.3063087;0.6242814;
637951549190981611;2115.087;5;7;3.5;0.2;2;1199;2.91909924937448;-0.8660251;0.9999995;-0.7928568;1.066184;0.6427875;2.266045;0.5714288;2.268649;
637951549202384179;2116.234;5;7;3.5;0.2;2;1147;3.0514385353095;0.9848077;1.673648;0.8862721;1.684989;-0.8660251;0.9999995;-0.7928568;1.066184;
637951549215967247;2117.586;5;7;3.5;0.2;2;1352;2.5887573964497;-0.9848078;1.673648;-0.9163042;1.655975;0.9848077;1.673648;0.8862721;1.684989;
637951549239952664;2119.985;5;7;3.5;0.2;2;2399;1.45894122551063;0.8660256;1;0.8316856;1.088489;-0.9848078;1.673648;-0.9163042;1.655975;
637951549250295000;2121.026;5;7;3.5;0.2;2;1041;3.36215177713737;-0.6427882;2.266044;-0.5853254;2.33611;0.8660256;1;0.8316856;1.088489;
637951549258286803;2121.825;5;7;3.5;0.2;2;799;4.38047559449312;0.3420205;0.5603075;0.3862872;0.6499686;-0.6427882;2.266044;-0.5853254;2.33611;
637951549302926879;2126.282;5;7;4.5;0.1;2.2;1899;2.3696682464455;-0.3762217;0.4663379;-0.3600968;0.5031278;0;2.6;-0.002727603;2.593173;
637951549317030066;2127.692;5;7;4.5;0.1;2.2;1410;3.19148936170213;0.7070663;2.342649;0.7535622;2.349031;-0.3762217;0.4663379;-0.3600968;0.5031278;
637951549330253052;2129.021;5;7;4.5;0.1;2.2;1329;3.38600451467269;-0.9526277;0.9499994;-0.9598776;0.9994519;0.7070663;2.342649;0.7535622;2.349031;
637951549374002935;2133.39;5;7;4.5;0.1;2.2;4368;1.03021978021978;1.083289;1.691013;1.07112;1.696942;-0.9526277;0.9499994;-0.9598776;0.9994519;
637951549414101987;2137.399;5;7;4.5;0.1;2.2;4010;1.12219451371571;-1.083289;1.691012;-1.052552;1.711574;1.083289;1.691013;1.07112;1.696942;
637951549444088756;2140.398;5;7;4.5;0.1;2.2;2999;1.50050016672224;0.9526281;0.9500003;0.9583432;0.991662;-1.083289;1.691012;-1.052552;1.711574;
637951549468084174;2142.797;5;7;4.5;0.1;2.2;2399;1.87578157565652;-0.7070671;2.342648;-0.7176527;2.343673;0.9526281;0.9500003;0.9583432;0.991662;
637951549502065230;2146.195;5;7;4.5;0.1;2.2;3398;1.32430841671572;0.3762226;0.4663382;0.3746358;0.5072492;-0.7070671;2.342648;-0.7176527;2.343673;
