637952053167015336;271.4217;6;0;3.5;0.2;2;1910;1.83246073298429;-0.3420197;0.5603072;-0.366039;0.6072756;0;2.5;-0.03106218;2.414884;
637952053190001480;273.7207;6;0;3.5;0.2;2;2299;1.52240104393214;0.6427875;2.266045;0.6030906;2.212319;-0.3420197;0.5603072;-0.366039;0.6072756;
637952053207996295;275.52;6;0;3.5;0.2;2;1799;1.94552529182879;-0.8660251;0.9999995;-0.8599676;1.056205;0.6427875;2.266045;0.6030906;2.212319;
637952053226981363;277.4189;6;0;3.5;0.2;2;1899;1.84307530279094;0.9848077;1.673648;0.9102517;1.70705;-0.8660251;0.9999995;-0.8599676;1.056205;
637952053240985108;278.8183;6;0;3.5;0.2;2;1399;2.50178699070765;-0.9848078;1.673648;-0.9919873;1.688829;0.9848077;1.673648;0.9102517;1.70705;
637952053257969648;280.5177;6;0;3.5;0.2;2;1699;2.06003531489111;0.8660256;1;0.7951365;1.066128;-0.9848078;1.673648;-0.9919873;1.688829;
637952053272973652;282.0169;6;0;3.5;0.2;2;1499;2.33488992661775;-0.6427882;2.266044;-0.6121812;2.202496;0.8660256;1;0.7951365;1.066128;
637952053290058226;283.7275;6;0;3.5;0.2;2;1711;2.04558737580362;0.3420205;0.5603075;0.3489313;0.6541786;-0.6427882;2.266044;-0.6121812;2.202496;
637952053333339798;288.0634;6;0;4;0.1;1.4;2237;1.78810907465355;-0.2394138;0.8422151;-0.260757;0.8873463;0;2.2;-0.0306304;2.23652;
637952053357026127;290.4242;6;0;4;0.1;1.4;2361;1.69419737399407;0.4499513;2.036231;0.4537017;2.050674;-0.2394138;0.8422151;-0.260757;0.8873463;
637952053381022536;292.8233;6;0;4;0.1;1.4;2399;1.66736140058358;-0.6062176;1.15;-0.5848948;1.106859;0.4499513;2.036231;0.4537017;2.050674;
637952053400012663;294.7221;6;0;4;0.1;1.4;1899;2.10637177461822;0.6893654;1.621554;0.7174603;1.648016;-0.6062176;1.15;-0.5848948;1.106859;
637952053431995595;297.9206;6;0;4;0.1;1.4;3199;1.25039074710847;-0.6893655;1.621553;-0.6954125;1.6478;0.6893654;1.621554;0.7174603;1.648016;
637952053463093916;301.0302;6;0;4;0.1;1.4;3110;1.28617363344051;0.6062179;1.15;0.5666298;1.180061;-0.6893655;1.621553;-0.6954125;1.6478;
637952053482087455;302.9294;6;0;4;0.1;1.4;1899;2.10637177461822;-0.4499517;2.036231;-0.4482483;2.039382;0.6062179;1.15;0.5666298;1.180061;
637952053501420913;304.87;6;0;4;0.1;1.4;1941;2.0607934054611;0.2394144;0.8422153;0.2677693;0.8833476;-0.4499517;2.036231;-0.4482483;2.039382;
637952053530148856;307.7353;6;0;2.5;0.3;1.4;1208;2.06953642384106;-0.2394138;0.8422151;-0.2785447;0.8994817;0;2.2;-0.01949965;2.125669;
637952053540064154;308.7267;6;0;2.5;0.3;1.4;991;2.52270433905146;0.4499513;2.036231;0.372322;1.937462;-0.2394138;0.8422151;-0.2785447;0.8994817;
637952053553062388;310.0261;6;0;2.5;0.3;1.4;1299;1.92455735180908;-0.6062176;1.15;-0.5754265;1.22983;0.4499513;2.036231;0.372322;1.937462;
637952053576048535;312.3253;6;0;2.5;0.3;1.4;2299;1.08742931709439;0.6893654;1.621554;0.6307922;1.665034;-0.6062176;1.15;-0.5754265;1.22983;
637952053598150557;314.5351;6;0;2.5;0.3;1.4;2210;1.13122171945701;-0.6893655;1.621553;-0.6227944;1.662746;0.6893654;1.621554;0.6307922;1.665034;
637952053612144298;315.9344;6;0;2.5;0.3;1.4;1399;1.78699070764832;0.6062179;1.15;0.5215468;1.268808;-0.6893655;1.621553;-0.6227944;1.662746;
637952053627138305;317.434;6;0;2.5;0.3;1.4;1500;1.66666666666667;-0.4499517;2.036231;-0.3955897;2.022498;0.6062179;1.15;0.5215468;1.268808;
637952053646123375;319.3328;6;0;2.5;0.3;1.4;1899;1.31648235913639;0.2394144;0.8422153;0.2178219;0.9657968;-0.4499517;2.036231;-0.3955897;2.022498;
637952053689114872;323.6308;6;0;4.5;0.1;2.2;2399;1.87578157565652;-0.3762217;0.4663379;-0.3744609;0.4975296;0;2.6;-0.0007748418;2.609666;
637952053735207187;328.2399;6;0;4.5;0.1;2.2;4609;0.976350618355392;0.7070663;2.342649;0.6809579;2.344858;-0.3762217;0.4663379;-0.3744609;0.4975296;
637952053758193340;330.5389;6;0;4.5;0.1;2.2;2299;1.9573727707699;-0.9526277;0.9499994;-0.9551594;0.9977643;0.7070663;2.342649;0.6809579;2.344858;
637952053780179208;332.7378;6;0;4.5;0.1;2.2;2199;2.04638472032742;1.083289;1.691013;1.088933;1.707047;-0.9526277;0.9499994;-0.9551594;0.9977643;
637952053806176035;335.3367;6;0;4.5;0.1;2.2;2599;1.73143516737207;-1.083289;1.691012;-1.058472;1.731483;1.083289;1.691013;1.088933;1.707047;
637952053823160583;337.0358;6;0;4.5;0.1;2.2;1699;2.64861683343143;0.9526281;0.9500003;0.9042814;0.9397712;-1.083289;1.691012;-1.058472;1.731483;
637952053849262475;339.6458;6;0;4.5;0.1;2.2;2610;1.72413793103448;-0.7070671;2.342648;-0.7388295;2.360452;0.9526281;0.9500003;0.9042814;0.9397712;
637952053876253137;342.3444;6;0;4.5;0.1;2.2;2699;1.66728417932568;0.3762226;0.4663382;0.3995816;0.482718;-0.7070671;2.342648;-0.7388295;2.360452;
637952053902240084;344.9433;6;0;1.5;1.1;2;1400;1.07142857142857;-0.3420197;0.5603072;-0.2721347;0.975138;0;2.5;-0.05862405;2.244566;
637952053913343052;346.0538;6;0;1.5;1.1;2;1110;1.35135135135135;0.6427875;2.266045;0.435793;2.104147;-0.3420197;0.5603072;-0.2721347;0.975138;
637952053927346796;347.4532;6;0;1.5;1.1;2;1399;1.07219442458899;-0.8660251;0.9999995;-0.9469396;1.291482;0.6427875;2.266045;0.435793;2.104147;
637952053949332672;349.6521;6;0;1.5;1.1;2;2199;0.682128240109141;0.9848077;1.673648;0.856855;1.686939;-0.8660251;0.9999995;-0.9469396;1.291482;
637952053962326153;350.9516;6;0;1.5;1.1;2;1299;1.15473441108545;-0.9848078;1.673648;-0.7872932;1.855938;0.9848077;1.673648;0.856855;1.686939;
637952053977320155;352.4507;6;0;1.5;1.1;2;1499;1.00066711140761;0.8660256;1;0.6628255;1.264345;-0.9848078;1.673648;-0.7872932;1.855938;
637952053999316029;354.6499;6;0;1.5;1.1;2;2199;0.682128240109141;-0.6427882;2.266044;-0.4807943;2.204119;0.8660256;1;0.6628255;1.264345;
637952054015300301;356.249;6;0;1.5;1.1;2;1599;0.938086303939963;0.3420205;0.5603075;0.3224431;0.9543211;-0.6427882;2.266044;-0.4807943;2.204119;
637952054053400491;360.0583;6;0;2;0.6;1.8;1610;1.24223602484472;-0.3078177;0.6542765;-0.3518359;0.8813206;0;2.4;-0.006314166;2.346355;
637952054075396371;362.2574;6;0;2;0.6;1.8;2199;0.909504320145521;0.5785087;2.18944;0.504236;2.069832;-0.3078177;0.6542765;-0.3518359;0.8813206;
637952054092380911;363.9567;6;0;2;0.6;1.8;1699;1.17716303708064;-0.7794226;1.05;-0.720756;1.132291;0.5785087;2.18944;0.504236;2.069832;
637952054114376791;366.1556;6;0;2;0.6;1.8;2199;0.909504320145521;0.8863269;1.656283;0.7479506;1.662731;-0.7794226;1.05;-0.720756;1.132291;
637952054127375314;367.4552;6;0;2;0.6;1.8;1300;1.53846153846154;-0.8863271;1.656283;-0.7760311;1.597763;0.8863269;1.656283;0.7479506;1.662731;
637952054149357882;369.654;6;0;2;0.6;1.8;2199;0.909504320145521;0.779423;1.05;0.6717609;1.2592;-0.8863271;1.656283;-0.7760311;1.597763;
637952054162351362;370.9534;6;0;2;0.6;1.8;1299;1.53964588144727;-0.5785094;2.18944;-0.4883022;2.050663;0.779423;1.05;0.6717609;1.2592;
637952054178345640;372.5526;6;0;2;0.6;1.8;1599;1.25078173858662;0.3078185;0.6542768;0.1939017;0.9068174;-0.5785094;2.18944;-0.4883022;2.050663;
637952054222441538;376.9616;6;0;3;0.2;1.4;1999;1.50075037518759;-0.2394138;0.8422151;-0.2465904;0.9299715;0;2.2;0.005746098;2.180576;
637952054239546110;378.6721;6;0;3;0.2;1.4;1710;1.75438596491228;0.4499513;2.036231;0.4285356;2.047886;-0.2394138;0.8422151;-0.2465904;0.9299715;
637952054257540920;380.4711;6;0;3;0.2;1.4;1799;1.66759310728182;-0.6062176;1.15;-0.6234767;1.174674;0.4499513;2.036231;0.4285356;2.047886;
637952054276525996;382.3704;6;0;3;0.2;1.4;1899;1.57977883096367;0.6893654;1.621554;0.7021077;1.57538;-0.6062176;1.15;-0.6234767;1.174674;
637952054290519736;383.7696;6;0;3;0.2;1.4;1399;2.14438884917798;-0.6893655;1.621553;-0.6429684;1.60411;0.6893654;1.621554;0.7021077;1.57538;
637952054315516419;386.2686;6;0;3;0.2;1.4;2499;1.20048019207683;0.6062179;1.15;0.5836599;1.178133;-0.6893655;1.621553;-0.6429684;1.60411;
637952054329510157;387.6679;6;0;3;0.2;1.4;1399;2.14438884917798;-0.4499517;2.036231;-0.4127932;1.999828;0.6062179;1.15;0.5836599;1.178133;
637952054345504434;389.2672;6;0;3;0.2;1.4;1599;1.87617260787993;0.2394144;0.8422153;0.1778016;0.8931768;-0.4499517;2.036231;-0.4127932;1.999828;
637952056491499186;603.8566;6;1;2;0.6;1.8;2299;0.869943453675511;-0.3078177;0.6542765;-0.2494241;0.9106511;0;2.4;0.001405776;2.285151;
637952056522487469;606.9553;6;1;2;0.6;1.8;3099;0.645369474023879;0.5785087;2.18944;0.4521613;2.017867;-0.3078177;0.6542765;-0.2494241;0.9106511;
637952056534480672;608.1547;6;1;2;0.6;1.8;1199;1.66805671392827;-0.7794226;1.05;-0.6356611;1.307395;0.5785087;2.18944;0.4521613;2.017867;
637952056547584174;609.4651;6;1;2;0.6;1.8;1310;1.52671755725191;0.8863269;1.656283;0.7268608;1.760345;-0.7794226;1.05;-0.6356611;1.307395;
637952056564578722;611.1644;6;1;2;0.6;1.8;1699;1.17716303708064;-0.8863271;1.656283;-0.6411992;1.712792;0.8863269;1.656283;0.7268608;1.760345;
637952056585574329;613.2635;6;1;2;0.6;1.8;2099;0.952834683182468;0.779423;1.05;0.6163066;1.205431;-0.8863271;1.656283;-0.6411992;1.712792;
637952056596527261;614.3588;6;1;2;0.6;1.8;1095;1.82648401826484;-0.5785094;2.18944;-0.5074844;2.059567;0.779423;1.05;0.6163066;1.205431;
637952056615562347;616.2618;6;1;2;0.6;1.8;1903;1.05097214923805;0.3078185;0.6542768;0.3086525;0.9361316;-0.5785094;2.18944;-0.5074844;2.059567;
637952056641549294;618.8607;6;1;3;0.2;1.4;1299;2.3094688221709;-0.2394138;0.8422151;-0.2030977;0.9278828;0;2.2;0.007317611;2.199864;
637952056655543033;620.2601;6;1;3;0.2;1.4;1400;2.14285714285714;0.4499513;2.036231;0.3686263;2.022679;-0.2394138;0.8422151;-0.2030977;0.9278828;
637952056670537041;621.7595;6;1;3;0.2;1.4;1499;2.00133422281521;-0.6062176;1.15;-0.5793988;1.199407;0.4499513;2.036231;0.3686263;2.022679;
637952056686531320;623.3586;6;1;3;0.2;1.4;1599;1.87617260787993;0.6893654;1.621554;0.6386298;1.647148;-0.6062176;1.15;-0.5793988;1.199407;
637952056699524790;624.6581;6;1;3;0.2;1.4;1299;2.3094688221709;-0.6893655;1.621553;-0.6140232;1.574704;0.6893654;1.621554;0.6386298;1.647148;
637952056712628293;625.9686;6;1;3;0.2;1.4;1310;2.29007633587786;0.6062179;1.15;0.5631596;1.206496;-0.6893655;1.621553;-0.6140232;1.574704;
637952056722620959;626.9681;6;1;3;0.2;1.4;1000;3;-0.4499517;2.036231;-0.459924;2.019297;0.6062179;1.15;0.5631596;1.206496;
637952056736614687;628.3674;6;1;3;0.2;1.4;1399;2.14438884917798;0.2394144;0.8422153;0.2728277;0.9030802;-0.4499517;2.036231;-0.459924;2.019297;
637952056793597590;634.0651;6;1;4.5;0.1;2.2;2199;2.04638472032742;-0.3762217;0.4663379;-0.363785;0.5046116;0;2.6;0.01107343;2.55139;
637952056824585801;637.1636;6;1;4.5;0.1;2.2;3098;1.45255003227889;0.7070663;2.342649;0.683034;2.348468;-0.3762217;0.4663379;-0.363785;0.5046116;
637952056851683045;639.8732;6;1;4.5;0.1;2.2;2710;1.66051660516605;-0.9526277;0.9499994;-0.9468369;0.9710129;0.7070663;2.342649;0.683034;2.348468;
637952056869677855;641.6725;6;1;4.5;0.1;2.2;1799;2.50138966092273;1.083289;1.691013;1.075557;1.650082;-0.9526277;0.9499994;-0.9468369;0.9710129;
637952056893664269;644.0714;6;1;4.5;0.1;2.2;2399;1.87578157565652;-1.083289;1.691012;-1.109109;1.688592;1.083289;1.691013;1.075557;1.650082;
637952056926653087;647.37;6;1;4.5;0.1;2.2;3299;1.36404971203395;0.9526281;0.9500003;0.9475968;0.9571441;-1.083289;1.691012;-1.109109;1.688592;
637952056947638697;649.4688;6;1;4.5;0.1;2.2;2099;2.14387803716055;-0.7070671;2.342648;-0.7050773;2.362046;0.9526281;0.9500003;0.9475968;0.9571441;
637952056965653512;651.2695;6;1;4.5;0.1;2.2;1801;2.49861188228762;0.3762226;0.4663382;0.3808607;0.5121121;-0.7070671;2.342648;-0.7050773;2.362046;
637952056986869184;653.3984;6;1;1.5;1.1;2;831;1.80505415162455;-0.3420197;0.5603072;-0.3217573;1.109772;0;2.5;-0.01303324;2.29841;
637952056997642061;654.468;6;1;1.5;1.1;2;1070;1.4018691588785;0.6427875;2.266045;0.4254099;2.013414;-0.3420197;0.5603072;-0.3217573;1.109772;
637952057009735294;655.6772;6;1;1.5;1.1;2;1209;1.24069478908189;-0.8660251;0.9999995;-0.6550163;1.19791;0.6427875;2.266045;0.4254099;2.013414;
637952057028720365;657.5762;6;1;1.5;1.1;2;1899;0.789889415481833;0.9848077;1.673648;0.7345263;1.602197;-0.8660251;0.9999995;-0.6550163;1.19791;
637952057039713310;658.6757;6;1;1.5;1.1;2;1100;1.36363636363636;-0.9848078;1.673648;-0.6873034;1.658216;0.9848077;1.673648;0.7345263;1.602197;
637952057050716252;659.7752;6;1;1.5;1.1;2;1099;1.36487716105551;0.8660256;1;0.5953803;1.363444;-0.9848078;1.673648;-0.6873034;1.658216;
637952057061699185;660.8746;6;1;1.5;1.1;2;1099;1.36487716105551;-0.6427882;2.266044;-0.4290613;2.054479;0.8660256;1;0.5953803;1.363444;
637952057074702659;662.1741;6;1;1.5;1.1;2;1299;1.15473441108545;0.3420205;0.5603075;0.3234403;1.016999;-0.6427882;2.266044;-0.4290613;2.054479;
637952057115687503;666.2722;6;1;4;0.1;1.4;1999;2.00100050025012;-0.2394138;0.8422151;-0.2306171;0.8649776;0;2.2;-0.008968087;2.212477;
637952057133691585;668.073;6;1;4;0.1;1.4;1801;2.22098833981122;0.4499513;2.036231;0.4554999;2.011938;-0.2394138;0.8422151;-0.2306171;0.8649776;
637952057157773042;670.4812;6;1;4;0.1;1.4;2408;1.66112956810631;-0.6062176;1.15;-0.6110802;1.185223;0.4499513;2.036231;0.4554999;2.011938;
637952057176770662;672.3803;6;1;4;0.1;1.4;1899;2.10637177461822;0.6893654;1.621554;0.6529999;1.642532;-0.6062176;1.15;-0.6110802;1.185223;
637952057211770020;675.8804;6;1;4;0.1;1.4;3500;1.14285714285714;-0.6893655;1.621553;-0.6688064;1.666553;0.6893654;1.621554;0.6529999;1.642532;
637952057224743486;677.1782;6;1;4;0.1;1.4;1298;3.08166409861325;0.6062179;1.15;0.6131057;1.103811;-0.6893655;1.621553;-0.6688064;1.666553;
637952057238757235;678.5787;6;1;4;0.1;1.4;1401;2.85510349750178;-0.4499517;2.036231;-0.4149151;2.038418;0.6062179;1.15;0.6131057;1.103811;
637952057255731772;680.2769;6;1;4;0.1;1.4;1698;2.35571260306243;0.2394144;0.8422153;0.2294936;0.888364;-0.4499517;2.036231;-0.4149151;2.038418;
637952057288720587;683.5752;6;1;3.5;0.2;2;1599;2.18886804252658;-0.3420197;0.5603072;-0.3262831;0.6412814;0;2.5;-0.01102803;2.48756;
637952057312827034;685.9853;6;1;3.5;0.2;2;2410;1.45228215767635;0.6427875;2.266045;0.5761406;2.201321;-0.3420197;0.5603072;-0.3262831;0.6412814;
637952057328811307;687.5845;6;1;3.5;0.2;2;1599;2.18886804252658;-0.8660251;0.9999995;-0.8065987;1.013976;0.6427875;2.266045;0.5761406;2.201321;
637952057345805847;689.2838;6;1;3.5;0.2;2;1699;2.06003531489111;0.9848077;1.673648;0.9136853;1.69533;-0.8660251;0.9999995;-0.8065987;1.013976;
637952057359799587;690.6831;6;1;3.5;0.2;2;1399;2.50178699070765;-0.9848078;1.673648;-0.9157202;1.67928;0.9848077;1.673648;0.9136853;1.69533;
637952057376794125;692.3822;6;1;3.5;0.2;2;1699;2.06003531489111;0.8660256;1;0.8940293;1.005235;-0.9848078;1.673648;-0.9157202;1.67928;
637952057392788406;693.9814;6;1;3.5;0.2;2;1599;2.18886804252658;-0.6427882;2.266044;-0.6040025;2.253311;0.8660256;1;0.8940293;1.005235;
637952057414127990;696.1226;6;1;3.5;0.2;2;2141;1.63475011676787;0.3420205;0.5603075;0.3592649;0.6478529;-0.6427882;2.266044;-0.6040025;2.253311;
637952057437766106;698.4794;6;1;2.5;0.3;1.4;1099;2.27479526842584;-0.2394138;0.8422151;-0.1456017;0.9235314;0;2.2;0.009025356;2.105934;
637952057450869608;699.79;6;1;2.5;0.3;1.4;1311;1.906941266209;0.4499513;2.036231;0.3563294;2.075404;-0.2394138;0.8422151;-0.1456017;0.9235314;
637952057464873352;701.1895;6;1;2.5;0.3;1.4;1400;1.78571428571429;-0.6062176;1.15;-0.5174993;1.25737;0.4499513;2.036231;0.3563294;2.075404;
637952057481857894;702.8888;6;1;2.5;0.3;1.4;1699;1.47145379635079;0.6893654;1.621554;0.6357335;1.668022;-0.6062176;1.15;-0.5174993;1.25737;
637952057494871373;704.1897;6;1;2.5;0.3;1.4;1301;1.92159877017679;-0.6893655;1.621553;-0.6375095;1.663657;0.6893654;1.621554;0.6357335;1.668022;
637952057508855109;705.5873;6;1;2.5;0.3;1.4;1398;1.78826895565093;0.6062179;1.15;0.5759689;1.268154;-0.6893655;1.621553;-0.6375095;1.663657;
637952057525839653;707.2867;6;1;2.5;0.3;1.4;1699;1.47145379635079;-0.4499517;2.036231;-0.4200403;2.032302;0.6062179;1.15;0.5759689;1.268154;
637952057538953155;708.597;6;1;2.5;0.3;1.4;1310;1.90839694656489;0.2394144;0.8422153;0.1671082;0.9356966;-0.4499517;2.036231;-0.4200403;2.032302;
637952058500319266;804.7302;6;2;3.5;0.2;2;1868;1.87366167023555;-0.3420197;0.5603072;-0.2989721;0.6490189;0;2.5;0.0431411;2.411199;
637952058515423303;806.2406;6;2;3.5;0.2;2;1510;2.31788079470199;0.6427875;2.266045;0.5489638;2.292089;-0.3420197;0.5603072;-0.2989721;0.6490189;
637952058530417311;807.7402;6;2;3.5;0.2;2;1500;2.33333333333333;-0.8660251;0.9999995;-0.8290328;1.040632;0.6427875;2.266045;0.5489638;2.292089;
637952058545409463;809.2393;6;2;3.5;0.2;2;1499;2.33488992661775;0.9848077;1.673648;0.9596474;1.666879;-0.8660251;0.9999995;-0.8290328;1.040632;
637952058568409310;811.5383;6;2;3.5;0.2;2;2299;1.52240104393214;-0.9848078;1.673648;-0.9597383;1.6522;0.9848077;1.673648;0.9596474;1.666879;
637952058583393313;813.0374;6;2;3.5;0.2;2;1499;2.33488992661775;0.8660256;1;0.8326312;1.056152;-0.9848078;1.673648;-0.9597383;1.6522;
637952058614381844;816.136;6;2;3.5;0.2;2;3099;1.12939657954179;-0.6427882;2.266044;-0.6370983;2.248191;0.8660256;1;0.8326312;1.056152;
637952058631491787;817.8464;6;2;3.5;0.2;2;1710;2.04678362573099;0.3420205;0.5603075;0.3032719;0.6355419;-0.6427882;2.266044;-0.6370983;2.248191;
637952058670470169;821.7445;6;2;4;0.1;1.4;1599;2.50156347717323;-0.2394138;0.8422151;-0.2246592;0.8556315;0;2.2;0.002950465;2.237679;
637952058684481381;823.1453;6;2;4;0.1;1.4;1401;2.85510349750178;0.4499513;2.036231;0.4299777;2.011884;-0.2394138;0.8422151;-0.2246592;0.8556315;
637952058699571903;824.6544;6;2;4;0.1;1.4;1509;2.65076209410205;-0.6062176;1.15;-0.6224731;1.125926;0.4499513;2.036231;0.4299777;2.011884;
637952058720563845;826.7533;6;2;4;0.1;1.4;2099;1.90566936636494;0.6893654;1.621554;0.6630102;1.581884;-0.6062176;1.15;-0.6224731;1.125926;
637952058754665523;830.1628;6;2;4;0.1;1.4;3410;1.17302052785924;-0.6893655;1.621553;-0.6934957;1.610912;0.6893654;1.621554;0.6630102;1.581884;
637952058778529850;832.5506;6;2;4;0.1;1.4;2388;1.6750418760469;0.6062179;1.15;0.5695103;1.176947;-0.6893655;1.621553;-0.6934957;1.610912;
637952058800525752;834.7497;6;2;4;0.1;1.4;2199;1.81900864029104;-0.4499517;2.036231;-0.4302698;2.042341;0.6062179;1.15;0.5695103;1.176947;
637952058817633546;836.46;6;2;4;0.1;1.4;1710;2.33918128654971;0.2394144;0.8422153;0.2468654;0.8781304;-0.4499517;2.036231;-0.4302698;2.042341;
637952058838623730;838.5593;6;2;1.5;1.1;2;1100;1.36363636363636;-0.3420197;0.5603072;-0.382996;1.019613;0;2.5;0.00611518;2.312925;
637952058848614272;839.5585;6;2;1.5;1.1;2;999;1.5015015015015;0.6427875;2.266045;0.6207047;1.909566;-0.3420197;0.5603072;-0.382996;1.019613;
637952058861612928;840.8579;6;2;1.5;1.1;2;1299;1.15473441108545;-0.8660251;0.9999995;-0.6721455;1.384041;0.6427875;2.266045;0.6207047;1.909566;
637952058870614731;841.7576;6;2;1.5;1.1;2;900;1.66666666666667;0.9848077;1.673648;0.7470025;1.660498;-0.8660251;0.9999995;-0.6721455;1.384041;
637952058887594889;843.4565;6;2;1.5;1.1;2;1699;0.882872277810477;-0.9848078;1.673648;-0.5353902;1.653168;0.9848077;1.673648;0.7470025;1.660498;
637952058899595650;844.6561;6;2;1.5;1.1;2;1199;1.25104253544621;0.8660256;1;0.6141515;1.394508;-0.9848078;1.673648;-0.5353902;1.653168;
637952058909591805;845.6555;6;2;1.5;1.1;2;1000;1.5;-0.6427882;2.266044;-0.4082072;2.030699;0.8660256;1;0.6141515;1.394508;
637952058922695306;846.9662;6;2;1.5;1.1;2;1311;1.1441647597254;0.3420205;0.5603075;0.1811857;1.019823;-0.6427882;2.266044;-0.4082072;2.030699;
637952058948692256;849.565;6;2;2.5;0.3;1.4;1099;2.27479526842584;-0.2394138;0.8422151;-0.2256765;0.8772954;0;2.2;0.08344498;2.154243;
637952058960685458;850.7644;6;2;2.5;0.3;1.4;1199;2.08507089241034;0.4499513;2.036231;0.3914808;2.050317;-0.2394138;0.8422151;-0.2256765;0.8772954;
637952058977680003;852.4637;6;2;2.5;0.3;1.4;1699;1.47145379635079;-0.6062176;1.15;-0.5402271;1.225607;0.4499513;2.036231;0.3914808;2.050317;
637952058996665080;854.3628;6;2;2.5;0.3;1.4;1899;1.31648235913639;0.6893654;1.621554;0.5954455;1.662179;-0.6062176;1.15;-0.5402271;1.225607;
637952059008658280;855.5623;6;2;2.5;0.3;1.4;1199;2.08507089241034;-0.6893655;1.621553;-0.6357223;1.712546;0.6893654;1.621554;0.5954455;1.662179;
637952059029653898;857.6611;6;2;2.5;0.3;1.4;2099;1.19104335397808;0.6062179;1.15;0.5220502;1.256859;-0.6893655;1.621553;-0.6357223;1.712546;
637952059042647371;858.9607;6;2;2.5;0.3;1.4;1300;1.92307692307692;-0.4499517;2.036231;-0.3807877;2.028946;0.6062179;1.15;0.5220502;1.256859;
637952059058641646;860.56;6;2;2.5;0.3;1.4;1599;1.56347717323327;0.2394144;0.8422153;0.1609535;0.9437377;-0.4499517;2.036231;-0.3807877;2.028946;
637952059089739961;863.6697;6;2;2;0.6;1.8;1210;1.65289256198347;-0.3078177;0.6542765;-0.3400649;0.9141091;0;2.4;0.01530116;2.173594;
637952059103733699;865.069;6;2;2;0.6;1.8;1399;1.42959256611866;0.5785087;2.18944;0.4761346;2.001767;-0.3078177;0.6542765;-0.3400649;0.9141091;
637952059119727973;866.6682;6;2;2;0.6;1.8;1599;1.25078173858662;-0.7794226;1.05;-0.5708132;1.246213;0.5785087;2.18944;0.4761346;2.001767;
637952059131731185;867.8679;6;2;2;0.6;1.8;1200;1.66666666666667;0.8863269;1.656283;0.7566956;1.62338;-0.7794226;1.05;-0.5708132;1.246213;
637952059143714385;869.067;6;2;2;0.6;1.8;1199;1.66805671392827;-0.8863271;1.656283;-0.6524793;1.654954;0.8863269;1.656283;0.7566956;1.62338;
637952059154707326;870.1664;6;2;2;0.6;1.8;1099;1.81983621474067;0.779423;1.05;0.6722122;1.228529;-0.8863271;1.656283;-0.6524793;1.654954;
637952059172702137;871.9658;6;2;2;0.6;1.8;1799;1.11172873818788;-0.5785094;2.18944;-0.4842003;1.988354;0.779423;1.05;0.6722122;1.228529;
637952059185698753;873.2651;6;2;2;0.6;1.8;1299;1.53964588144727;0.3078185;0.6542768;0.2536793;0.912243;-0.5785094;2.18944;-0.4842003;1.988354;
637952059211685698;875.8638;6;2;3;0.2;1.4;1299;2.3094688221709;-0.2394138;0.8422151;-0.2434996;0.9054828;0;2.2;-0.05751321;2.1255;
637952059226787669;877.3743;6;2;3;0.2;1.4;1511;1.98544010589014;0.4499513;2.036231;0.3875818;2.08159;-0.2394138;0.8422151;-0.2434996;0.9054828;
637952059241784297;878.8735;6;2;3;0.2;1.4;1499;2.00133422281521;-0.6062176;1.15;-0.5897111;1.212902;0.4499513;2.036231;0.3875818;2.08159;
637952059250784586;879.7732;6;2;3;0.2;1.4;900;3.33333333333333;0.6893654;1.621554;0.6980407;1.604143;-0.6062176;1.15;-0.5897111;1.212902;
637952059269777289;881.6724;6;2;3;0.2;1.4;1899;1.57977883096367;-0.6893655;1.621553;-0.6694487;1.626997;0.6893654;1.621554;0.6980407;1.604143;
637952059282767691;882.9717;6;2;3;0.2;1.4;1299;2.3094688221709;0.6062179;1.15;0.5857079;1.118258;-0.6893655;1.621553;-0.6694487;1.626997;
637952059295117933;884.2131;6;2;3;0.2;1.4;1241;2.4174053182917;-0.4499517;2.036231;-0.4454559;1.938893;0.6062179;1.15;0.5857079;1.118258;
637952059327098930;887.4116;6;2;3;0.2;1.4;3199;0.937793060331354;0.2394144;0.8422153;0.1889395;0.9284075;-0.4499517;2.036231;-0.4454559;1.938893;
637952059388837708;893.5781;6;2;4.5;0.1;2.2;2599;1.73143516737207;-0.3762217;0.4663379;-0.3775752;0.438578;0;2.6;-0.003809368;2.578865;
637952059418935754;896.5878;6;2;4.5;0.1;2.2;3010;1.49501661129568;0.7070663;2.342649;0.6627486;2.334298;-0.3762217;0.4663379;-0.3775752;0.438578;
637952059443922432;899.0863;6;2;4.5;0.1;2.2;2499;1.80072028811525;-0.9526277;0.9499994;-0.9249802;0.9670409;0.7070663;2.342649;0.6627486;2.334298;
637952059471909916;901.8852;6;2;4.5;0.1;2.2;2799;1.60771704180064;1.083289;1.691013;1.070077;1.680806;-0.9526277;0.9499994;-0.9249802;0.9670409;
637952059488904458;903.5844;6;2;4.5;0.1;2.2;1699;2.64861683343143;-1.083289;1.691012;-1.047963;1.674311;1.083289;1.691013;1.070077;1.680806;
637952059510890333;905.7833;6;2;4.5;0.1;2.2;2199;2.04638472032742;0.9526281;0.9500003;0.9482689;0.9640948;-1.083289;1.691012;-1.047963;1.674311;
637952059527884875;907.4826;6;2;4.5;0.1;2.2;1699;2.64861683343143;-0.7070671;2.342648;-0.6773955;2.322412;0.9526281;0.9500003;0.9482689;0.9640948;
637952059563984527;911.092;6;2;4.5;0.1;2.2;3609;1.24688279301746;0.3762226;0.4663382;0.3910138;0.5072938;-0.7070671;2.342648;-0.6773955;2.322412;
637952060342193692;988.9113;6;3;2.5;0.3;1.4;1299;1.92455735180908;-0.2394138;0.8422151;-0.2298282;0.950837;0;2.2;-0.01972337;2.180954;
637952060356191532;990.3109;6;3;2.5;0.3;1.4;1400;1.78571428571429;0.4499513;2.036231;0.4492187;1.974423;-0.2394138;0.8422151;-0.2298282;0.950837;
637952060370185272;991.7101;6;3;2.5;0.3;1.4;1399;1.78699070764832;-0.6062176;1.15;-0.5753803;1.168488;0.4499513;2.036231;0.4492187;1.974423;
637952060382288509;992.9207;6;3;2.5;0.3;1.4;1211;2.06440957886045;0.6893654;1.621554;0.6034533;1.641625;-0.6062176;1.15;-0.5753803;1.168488;
637952060401283586;994.8197;6;3;2.5;0.3;1.4;1899;1.31648235913639;-0.6893655;1.621553;-0.5911058;1.586439;0.6893654;1.621554;0.6034533;1.641625;
637952060415277334;996.2194;6;3;2.5;0.3;1.4;1400;1.78571428571429;0.6062179;1.15;0.5175689;1.075361;-0.6893655;1.621553;-0.5911058;1.586439;
637952060430261332;997.7183;6;3;2.5;0.3;1.4;1499;1.66777851901268;-0.4499517;2.036231;-0.4496557;1.928695;0.6062179;1.15;0.5175689;1.075361;
637952060442264542;998.918;6;3;2.5;0.3;1.4;1200;2.08333333333333;0.2394144;0.8422153;0.1932739;0.9277686;-0.4499517;2.036231;-0.4496557;1.928695;
637952060494248436;1004.116;6;3;4;0.1;1.4;3199;1.25039074710847;-0.2394138;0.8422151;-0.2112515;0.8538967;0;2.2;-0.002578837;2.166808;
637952060509352473;1005.626;6;3;4;0.1;1.4;1510;2.64900662251656;0.4499513;2.036231;0.4326472;2.033159;-0.2394138;0.8422151;-0.2112515;0.8538967;
637952060527337284;1007.425;6;3;4;0.1;1.4;1799;2.22345747637576;-0.6062176;1.15;-0.604345;1.16354;0.4499513;2.036231;0.4326472;2.033159;
637952060541331027;1008.825;6;3;4;0.1;1.4;1399;2.85918513223731;0.6893654;1.621554;0.6428841;1.615387;-0.6062176;1.15;-0.604345;1.16354;
637952060576540436;1012.352;6;3;4;0.1;1.4;3528;1.13378684807256;-0.6893655;1.621553;-0.6683285;1.666857;0.6893654;1.621554;0.6428841;1.615387;
637952060601307058;1014.822;6;3;4;0.1;1.4;2469;1.62008910490077;0.6062179;1.15;0.5945317;1.179439;-0.6893655;1.621553;-0.6683285;1.666857;
637952060634295878;1018.12;6;3;4;0.1;1.4;3298;1.21285627653123;-0.4499517;2.036231;-0.4571261;2.065736;0.6062179;1.15;0.5945317;1.179439;
637952060654391248;1020.13;6;3;4;0.1;1.4;2010;1.99004975124378;0.2394144;0.8422153;0.2240385;0.8854651;-0.4499517;2.036231;-0.4571261;2.065736;
637952060678378142;1022.529;6;3;2;0.6;1.8;1199;1.66805671392827;-0.3078177;0.6542765;-0.2267955;0.8265938;0;2.4;-0.08065967;2.249031;
637952060693376899;1024.028;6;3;2;0.6;1.8;1499;1.33422281521014;0.5785087;2.18944;0.5863344;2.059846;-0.3078177;0.6542765;-0.2267955;0.8265938;
637952060709371175;1025.628;6;3;2;0.6;1.8;1599;1.25078173858662;-0.7794226;1.05;-0.5786486;1.230793;0.5785087;2.18944;0.5863344;2.059846;
637952060720364113;1026.727;6;3;2;0.6;1.8;1100;1.81818181818182;0.8863269;1.656283;0.7309159;1.602272;-0.7794226;1.05;-0.5786486;1.230793;
637952060737363698;1028.426;6;3;2;0.6;1.8;1699;1.17716303708064;-0.8863271;1.656283;-0.6945431;1.526535;0.8863269;1.656283;0.7309159;1.602272;
637952060750353643;1029.726;6;3;2;0.6;1.8;1300;1.53846153846154;0.779423;1.05;0.6568843;1.289325;-0.8863271;1.656283;-0.6945431;1.526535;
637952060765456145;1031.236;6;3;2;0.6;1.8;1510;1.32450331125828;-0.5785094;2.18944;-0.4166831;2.074796;0.779423;1.05;0.6568843;1.289325;
637952060776449174;1032.336;6;3;2;0.6;1.8;1100;1.81818181818182;0.3078185;0.6542768;0.2349808;0.8749849;-0.5785094;2.18944;-0.4166831;2.074796;
637952060802446123;1034.934;6;3;3.5;0.2;2;1199;2.91909924937448;-0.3420197;0.5603072;-0.3172266;0.6169064;0;2.5;-0.04320648;2.423663;
637952060829433343;1037.633;6;3;3.5;0.2;2;2699;1.29677658391997;0.6427875;2.266045;0.6166114;2.184857;-0.3420197;0.5603072;-0.3172266;0.6169064;
637952060844427345;1039.133;6;3;3.5;0.2;2;1499;2.33488992661775;-0.8660251;0.9999995;-0.8117861;1.07924;0.6427875;2.266045;0.6166114;2.184857;
637952060860421621;1040.732;6;3;3.5;0.2;2;1599;2.18886804252658;0.9848077;1.673648;0.9007804;1.619799;-0.8660251;0.9999995;-0.8117861;1.07924;
637952060875415629;1042.231;6;3;3.5;0.2;2;1499;2.33488992661775;-0.9848078;1.673648;-0.9006962;1.627052;0.9848077;1.673648;0.9007804;1.619799;
637952060900402305;1044.73;6;3;3.5;0.2;2;2499;1.40056022408964;0.8660256;1;0.8366143;1.086586;-0.9848078;1.673648;-0.9006962;1.627052;
637952060923838576;1047.081;6;3;3.5;0.2;2;2351;1.48872820076563;-0.6427882;2.266044;-0.6318135;2.166666;0.8660256;1;0.8366143;1.086586;
637952060941493296;1048.839;6;3;3.5;0.2;2;1758;1.99089874857793;0.3420205;0.5603075;0.3598031;0.6235615;-0.6427882;2.266044;-0.6318135;2.166666;
637952060975482372;1052.238;6;3;4.5;0.1;2.2;1799;2.50138966092273;-0.3762217;0.4663379;-0.3653295;0.5077159;0;2.6;0.02841912;2.563048;
637952060995477723;1054.237;6;3;4.5;0.1;2.2;1999;2.25112556278139;0.7070663;2.342649;0.6954154;2.346373;-0.3762217;0.4663379;-0.3653295;0.5077159;
637952061011461991;1055.836;6;3;4.5;0.1;2.2;1599;2.81425891181989;-0.9526277;0.9499994;-0.9316965;0.9930705;0.7070663;2.342649;0.6954154;2.346373;
637952061027456268;1057.435;6;3;4.5;0.1;2.2;1599;2.81425891181989;1.083289;1.691013;1.055932;1.732864;-0.9526277;0.9499994;-0.9316965;0.9930705;
637952061043450552;1059.035;6;3;4.5;0.1;2.2;1599;2.81425891181989;-1.083289;1.691012;-1.039566;1.701245;1.083289;1.691013;1.055932;1.732864;
637952061064558222;1061.145;6;3;4.5;0.1;2.2;2110;2.13270142180095;0.9526281;0.9500003;0.9196017;0.9427238;-1.083289;1.691012;-1.039566;1.701245;
637952061078551961;1062.544;6;3;4.5;0.1;2.2;1399;3.21658327376698;-0.7070671;2.342648;-0.7048162;2.335567;0.9526281;0.9500003;0.9196017;0.9427238;
637952061096656802;1064.354;6;3;4.5;0.1;2.2;1810;2.48618784530387;0.3762226;0.4663382;0.3427314;0.4945583;-0.7070671;2.342648;-0.7048162;2.335567;
637952061130633699;1067.753;6;3;3;0.2;1.4;1200;2.5;-0.2394138;0.8422151;-0.1911103;0.8880527;0;2.2;-0.02294903;2.131151;
637952061145635891;1069.252;6;3;3;0.2;1.4;1499;2.00133422281521;0.4499513;2.036231;0.4125065;1.998445;-0.2394138;0.8422151;-0.1911103;0.8880527;
637952061162620459;1070.951;6;3;3;0.2;1.4;1699;1.76574455562095;-0.6062176;1.15;-0.5905101;1.178024;0.4499513;2.036231;0.4125065;1.998445;
637952061181615539;1072.85;6;3;3;0.2;1.4;1899;1.57977883096367;0.6893654;1.621554;0.6243508;1.590206;-0.6062176;1.15;-0.5905101;1.178024;
637952061196609538;1074.349;6;3;3;0.2;1.4;1499;2.00133422281521;-0.6893655;1.621553;-0.6868647;1.677576;0.6893654;1.621554;0.6243508;1.590206;
637952061209603021;1075.649;6;3;3;0.2;1.4;1300;2.30769230769231;0.6062179;1.15;0.5405234;1.223291;-0.6893655;1.621553;-0.6868647;1.677576;
637952061222706512;1076.959;6;3;3;0.2;1.4;1311;2.2883295194508;-0.4499517;2.036231;-0.4287924;1.980967;0.6062179;1.15;0.5405234;1.223291;
637952061237700523;1078.459;6;3;3;0.2;1.4;1499;2.00133422281521;0.2394144;0.8422153;0.2634312;0.9151545;-0.4499517;2.036231;-0.4287924;1.980967;
637952061261696942;1080.858;6;3;1.5;1.1;2;1200;1.25;-0.3420197;0.5603072;-0.3120775;1.021993;0;2.5;0.01258962;2.316467;
637952061274690415;1082.157;6;3;1.5;1.1;2;1300;1.15384615384615;0.6427875;2.266045;0.4636813;1.977839;-0.3420197;0.5603072;-0.3120775;1.021993;
637952061291684957;1083.856;6;3;1.5;1.1;2;1699;0.882872277810477;-0.8660251;0.9999995;-0.5716659;1.289013;0.6427875;2.266045;0.4636813;1.977839;
637952061303678164;1085.056;6;3;1.5;1.1;2;1199;1.25104253544621;0.9848077;1.673648;0.6120246;1.758786;-0.8660251;0.9999995;-0.5716659;1.289013;
637952061321662964;1086.855;6;3;1.5;1.1;2;1799;0.833796553640912;-0.9848078;1.673648;-0.6168316;1.673165;0.9848077;1.673648;0.6120246;1.758786;
637952061334666447;1088.154;6;3;1.5;1.1;2;1299;1.15473441108545;0.8660256;1;0.6782224;1.372379;-0.9848078;1.673648;-0.6168316;1.673165;
637952061353651517;1090.053;6;3;1.5;1.1;2;1899;0.789889415481833;-0.6427882;2.266044;-0.3872777;1.884843;0.8660256;1;0.6782224;1.372379;
637952061377757968;1092.463;6;3;1.5;1.1;2;2410;0.622406639004149;0.3420205;0.5603075;0.3558971;0.9677039;-0.6427882;2.266044;-0.3872777;1.884843;
637952062698204185;1224.502;6;4;4.5;0.1;2.2;1499;3.00200133422282;-0.3762217;0.4663379;-0.3652615;0.508512;0;2.6;0.02161227;2.641035;
637952062757286409;1230.41;6;4;4.5;0.1;2.2;5908;0.761679079214624;0.7070663;2.342649;0.7155047;2.348437;-0.3762217;0.4663379;-0.3652615;0.508512;
637952062786274161;1233.309;6;4;4.5;0.1;2.2;2899;1.55225939979303;-0.9526277;0.9499994;-0.9812595;0.9531507;0.7070663;2.342649;0.7155047;2.348437;
637952062801628267;1234.852;6;4;4.5;0.1;2.2;1543;2.91639662994167;1.083289;1.691013;1.060057;1.734707;-0.9526277;0.9499994;-0.9812595;0.9531507;
637952062828255389;1237.507;6;4;4.5;0.1;2.2;2655;1.69491525423729;-1.083289;1.691012;-1.055735;1.727775;1.083289;1.691013;1.060057;1.734707;
637952062861244202;1240.806;6;4;4.5;0.1;2.2;3298;1.36446331109763;0.9526281;0.9500003;0.9888653;0.9351964;-1.083289;1.691012;-1.055735;1.727775;
637952062892342514;1243.916;6;4;4.5;0.1;2.2;3110;1.44694533762058;-0.7070671;2.342648;-0.6979012;2.37997;0.9526281;0.9500003;0.9888653;0.9351964;
637952062912327852;1245.914;6;4;4.5;0.1;2.2;1999;2.25112556278139;0.3762226;0.4663382;0.3706338;0.5012761;-0.7070671;2.342648;-0.6979012;2.37997;
637952062938314807;1248.513;6;4;2.5;0.3;1.4;1400;1.78571428571429;-0.2394138;0.8422151;-0.2351977;0.9800771;0;2.2;0.0007934691;2.098051;
637952062950308013;1249.712;6;4;2.5;0.3;1.4;1199;2.08507089241034;0.4499513;2.036231;0.4395648;2.014726;-0.2394138;0.8422151;-0.2351977;0.9800771;
637952062986297630;1253.311;6;4;2.5;0.3;1.4;3598;0.694830461367426;-0.6062176;1.15;-0.6187835;1.218349;0.4499513;2.036231;0.4395648;2.014726;
637952062998290831;1254.51;6;4;2.5;0.3;1.4;1200;2.08333333333333;0.6893654;1.621554;0.6015968;1.670223;-0.6062176;1.15;-0.6187835;1.218349;
637952063010284045;1255.71;6;4;2.5;0.3;1.4;1199;2.08507089241034;-0.6893655;1.621553;-0.5622833;1.645482;0.6893654;1.621554;0.6015968;1.670223;
637952063023289949;1257.009;6;4;2.5;0.3;1.4;1299;1.92455735180908;0.6062179;1.15;0.5273075;1.171804;-0.6893655;1.621553;-0.5622833;1.645482;
637952063036389454;1258.32;6;4;2.5;0.3;1.4;1311;1.906941266209;-0.4499517;2.036231;-0.4042021;1.97112;0.6062179;1.15;0.5273075;1.171804;
637952063050383201;1259.719;6;4;2.5;0.3;1.4;1399;1.78699070764832;0.2394144;0.8422153;0.1582723;0.9272261;-0.4499517;2.036231;-0.4042021;1.97112;
637952063102358403;1264.917;6;4;4;0.1;1.4;3099;1.29073894804776;-0.2394138;0.8422151;-0.2140383;0.838865;0;2.2;0.01890444;2.195795;
637952063119353295;1266.616;6;4;4;0.1;1.4;1699;2.35432607416127;0.4499513;2.036231;0.4237959;2.05361;-0.2394138;0.8422151;-0.2140383;0.838865;
637952063135347571;1268.215;6;4;4;0.1;1.4;1599;2.50156347717323;-0.6062176;1.15;-0.5879235;1.168783;0.4499513;2.036231;0.4237959;2.05361;
637952063156343180;1270.314;6;4;4;0.1;1.4;2099;1.90566936636494;0.6893654;1.621554;0.6764476;1.625193;-0.6062176;1.15;-0.5879235;1.168783;
637952063174438020;1272.124;6;4;4;0.1;1.4;1810;2.20994475138122;-0.6893655;1.621553;-0.6464472;1.636358;0.6893654;1.621554;0.6764476;1.625193;
637952063190432288;1273.724;6;4;4;0.1;1.4;1599;2.50156347717323;0.6062179;1.15;0.6133764;1.190363;-0.6893655;1.621553;-0.6464472;1.636358;
637952063220800411;1276.768;6;4;4;0.1;1.4;3044;1.31406044678055;-0.4499517;2.036231;-0.4531493;2.08338;0.6062179;1.15;0.6133764;1.190363;
637952063255409664;1280.221;6;4;4;0.1;1.4;3453;1.15841297422531;0.2394144;0.8422153;0.2240892;0.8274086;-0.4499517;2.036231;-0.4531493;2.08338;
637952063274394742;1282.12;6;4;1.5;1.1;2;899;1.66852057842047;-0.3420197;0.5603072;-0.1974034;1.017968;0;2.5;-0.008859381;2.174048;
637952063286387944;1283.319;6;4;1.5;1.1;2;1199;1.25104253544621;0.6427875;2.266045;0.4621648;1.947492;-0.3420197;0.5603072;-0.1974034;1.017968;
637952063303392490;1285.018;6;4;1.5;1.1;2;1699;0.882872277810477;-0.8660251;0.9999995;-0.5666759;1.340365;0.6427875;2.266045;0.4621648;1.947492;
637952063315385695;1286.218;6;4;1.5;1.1;2;1199;1.25104253544621;0.9848077;1.673648;0.6870507;1.752777;-0.8660251;0.9999995;-0.5666759;1.340365;
637952063327378901;1287.417;6;4;1.5;1.1;2;1199;1.25104253544621;-0.9848078;1.673648;-0.5159384;1.772604;0.9848077;1.673648;0.6870507;1.752777;
637952063338481869;1288.528;6;4;1.5;1.1;2;1110;1.35135135135135;0.8660256;1;0.6357241;1.319799;-0.9848078;1.673648;-0.5159384;1.772604;
637952063351475345;1289.828;6;4;1.5;1.1;2;1300;1.15384615384615;-0.6427882;2.266044;-0.4241433;2.116423;0.8660256;1;0.6357241;1.319799;
637952063363478552;1291.027;6;4;1.5;1.1;2;1199;1.25104253544621;0.3420205;0.5603075;0.3661728;1.007489;-0.6427882;2.266044;-0.4241433;2.116423;
637952063393461691;1294.025;6;4;3.5;0.2;2;1499;2.33488992661775;-0.3420197;0.5603072;-0.2695085;0.6193631;0;2.5;0.00169226;2.481779;
637952063406455201;1295.325;6;4;3.5;0.2;2;1299;2.69438029253272;0.6427875;2.266045;0.5802326;2.24895;-0.3420197;0.5603072;-0.2695085;0.6193631;
637952063421449208;1296.824;6;4;3.5;0.2;2;1499;2.33488992661775;-0.8660251;0.9999995;-0.8266519;1.072608;0.6427875;2.266045;0.5802326;2.24895;
637952063434444436;1298.123;6;4;3.5;0.2;2;1299;2.69438029253272;0.9848077;1.673648;0.9236999;1.692183;-0.8660251;0.9999995;-0.8266519;1.072608;
637952063456433273;1300.323;6;4;3.5;0.2;2;2199;1.59163256025466;-0.9848078;1.673648;-0.9598457;1.651128;0.9848077;1.673648;0.9236999;1.692183;
637952063470537042;1301.733;6;4;3.5;0.2;2;1410;2.4822695035461;0.8660256;1;0.8297983;1.091443;-0.9848078;1.673648;-0.9598457;1.651128;
637952063492522917;1303.932;6;4;3.5;0.2;2;2199;1.59163256025466;-0.6427882;2.266044;-0.7017991;2.261167;0.8660256;1;0.8297983;1.091443;
637952063508517192;1305.531;6;4;3.5;0.2;2;1599;2.18886804252658;0.3420205;0.5603075;0.274009;0.6140946;-0.6427882;2.266044;-0.7017991;2.261167;
637952063535514410;1308.23;6;4;3;0.2;1.4;1399;2.14438884917798;-0.2394138;0.8422151;-0.1995788;0.9260364;0;2.2;0.01807381;2.191354;
637952063550508419;1309.729;6;4;3;0.2;1.4;1499;2.00133422281521;0.4499513;2.036231;0.3741551;2.040905;-0.2394138;0.8422151;-0.1995788;0.9260364;
637952063565502428;1311.228;6;4;3;0.2;1.4;1499;2.00133422281521;-0.6062176;1.15;-0.6118099;1.140655;0.4499513;2.036231;0.3741551;2.040905;
637952063579496168;1312.628;6;4;3;0.2;1.4;1399;2.14438884917798;0.6893654;1.621554;0.6185274;1.657705;-0.6062176;1.15;-0.6118099;1.140655;
637952063591489375;1313.827;6;4;3;0.2;1.4;1200;2.5;-0.6893655;1.621553;-0.6638136;1.58948;0.6893654;1.621554;0.6185274;1.657705;
637952063604592877;1315.138;6;4;3;0.2;1.4;1310;2.29007633587786;0.6062179;1.15;0.5490849;1.113986;-0.6893655;1.621553;-0.6638136;1.58948;
637952063629579559;1317.637;6;4;3;0.2;1.4;2499;1.20048019207683;-0.4499517;2.036231;-0.3777031;2.036906;0.6062179;1.15;0.5490849;1.113986;
637952063644573560;1319.136;6;4;3;0.2;1.4;1499;2.00133422281521;0.2394144;0.8422153;0.2123999;0.9331561;-0.4499517;2.036231;-0.3777031;2.036906;
637952063669570247;1321.635;6;4;2;0.6;1.8;1199;1.66805671392827;-0.3078177;0.6542765;-0.2994435;0.8508457;0;2.4;0.004361928;2.242454;
637952063682563719;1322.934;6;4;2;0.6;1.8;1299;1.53964588144727;0.5785087;2.18944;0.5042158;2.074956;-0.3078177;0.6542765;-0.2994435;0.8508457;
637952063693556659;1324.034;6;4;2;0.6;1.8;1099;1.81983621474067;-0.7794226;1.05;-0.7046239;1.14734;0.5785087;2.18944;0.5042158;2.074956;
637952063709550934;1325.633;6;4;2;0.6;1.8;1599;1.25078173858662;0.8863269;1.656283;0.9109524;1.651157;-0.7794226;1.05;-0.7046239;1.14734;
637952063722544406;1326.932;6;4;2;0.6;1.8;1300;1.53846153846154;-0.8863271;1.656283;-0.6795302;1.623747;0.8863269;1.656283;0.9109524;1.651157;
637952063733542405;1328.032;6;4;2;0.6;1.8;1099;1.81983621474067;0.779423;1.05;0.7404197;1.222224;-0.8863271;1.656283;-0.6795302;1.623747;
637952063743532370;1329.031;6;4;2;0.6;1.8;1000;2;-0.5785094;2.18944;-0.4279161;2.014853;0.779423;1.05;0.7404197;1.222224;
637952063754635339;1330.142;6;4;2;0.6;1.8;1110;1.8018018018018;0.3078185;0.6542768;0.350969;0.8893458;-0.5785094;2.18944;-0.4279161;2.014853;
637952064490127240;1403.686;6;5;2.5;0.3;1.4;1388;1.80115273775216;-0.2394138;0.8422151;-0.1953764;0.9608781;0;2.2;-0.009209172;2.273221;
637952064503122825;1404.985;6;5;2.5;0.3;1.4;1300;1.92307692307692;0.4499513;2.036231;0.4257072;2.02218;-0.2394138;0.8422151;-0.1953764;0.9608781;
637952064522107934;1406.884;6;5;2.5;0.3;1.4;1899;1.31648235913639;-0.6062176;1.15;-0.6305653;1.194764;0.4499513;2.036231;0.4257072;2.02218;
637952064535101405;1408.184;6;5;2.5;0.3;1.4;1300;1.92307692307692;0.6893654;1.621554;0.6072291;1.62826;-0.6062176;1.15;-0.6305653;1.194764;
637952064546104348;1409.283;6;5;2.5;0.3;1.4;1099;2.27479526842584;-0.6893655;1.621553;-0.5547196;1.612952;0.6893654;1.621554;0.6072291;1.62826;
637952064556097017;1410.283;6;5;2.5;0.3;1.4;1000;2.5;0.6062179;1.15;0.5721021;1.19879;-0.6893655;1.621553;-0.5547196;1.612952;
637952064566089690;1411.282;6;5;2.5;0.3;1.4;999;2.5025025025025;-0.4499517;2.036231;-0.4615309;1.913165;0.6062179;1.15;0.5721021;1.19879;
637952064587085302;1413.381;6;5;2.5;0.3;1.4;2099;1.19104335397808;0.2394144;0.8422153;0.2327041;0.9765553;-0.4499517;2.036231;-0.4615309;1.913165;
637952064624175218;1417.09;6;5;2;0.6;1.8;1399;1.42959256611866;-0.3078177;0.6542765;-0.1592009;0.8869356;0;2.4;0.02232265;2.164465;
637952064638168956;1418.49;6;5;2;0.6;1.8;1399;1.42959256611866;0.5785087;2.18944;0.4802697;2.015739;-0.3078177;0.6542765;-0.1592009;0.8869356;
637952064651162435;1419.789;6;5;2;0.6;1.8;1299;1.53964588144727;-0.7794226;1.05;-0.6347283;1.252282;0.5785087;2.18944;0.4802697;2.015739;
637952064662165375;1420.889;6;5;2;0.6;1.8;1100;1.81818181818182;0.8863269;1.656283;0.6816801;1.533984;-0.7794226;1.05;-0.6347283;1.252282;
637952064688152317;1423.488;6;5;2;0.6;1.8;2599;0.769526741054252;-0.8863271;1.656283;-0.7651275;1.602087;0.8863269;1.656283;0.6816801;1.533984;
637952064704146594;1425.087;6;5;2;0.6;1.8;1599;1.25078173858662;0.779423;1.05;0.5689344;1.140321;-0.8863271;1.656283;-0.7651275;1.602087;
637952064716139802;1426.286;6;5;2;0.6;1.8;1200;1.66666666666667;-0.5785094;2.18944;-0.4556678;2.038773;0.779423;1.05;0.5689344;1.140321;
637952064731133807;1427.786;6;5;2;0.6;1.8;1499;1.33422281521014;0.3078185;0.6542768;0.2999272;0.846714;-0.5785094;2.18944;-0.4556678;2.038773;
637952064753119689;1429.984;6;5;1.5;1.1;2;900;1.66666666666667;-0.3420197;0.5603072;-0.1244741;0.9338533;0;2.5;0.05541277;2.164757;
637952064773225060;1431.995;6;5;1.5;1.1;2;2010;0.746268656716418;0.6427875;2.266045;0.3900425;1.87864;-0.3420197;0.5603072;-0.1244741;0.9338533;
637952064783227733;1432.994;6;5;1.5;1.1;2;1000;1.5;-0.8660251;0.9999995;-0.7185794;1.237608;0.6427875;2.266045;0.3900425;1.87864;
637952064794220672;1434.094;6;5;1.5;1.1;2;1100;1.36363636363636;0.9848077;1.673648;0.6525815;1.674367;-0.8660251;0.9999995;-0.7185794;1.237608;
637952064804224939;1435.094;6;5;1.5;1.1;2;1000;1.5;-0.9848078;1.673648;-0.5899605;1.688581;0.9848077;1.673648;0.6525815;1.674367;
637952064815207881;1436.193;6;5;1.5;1.1;2;1099;1.36487716105551;0.8660256;1;0.6001461;1.35634;-0.9848078;1.673648;-0.5899605;1.688581;
637952064825210549;1437.192;6;5;1.5;1.1;2;999;1.5015015015015;-0.6427882;2.266044;-0.4190122;1.927543;0.8660256;1;0.6001461;1.35634;
637952064832202422;1437.892;6;5;1.5;1.1;2;700;2.14285714285714;0.3420205;0.5603075;0.1907664;1.087436;-0.6427882;2.266044;-0.4190122;1.927543;
637952064859305177;1440.602;6;5;3;0.2;1.4;1311;2.2883295194508;-0.2394138;0.8422151;-0.2459986;0.9114074;0;2.2;-0.0349361;2.18084;
637952064871296112;1441.801;6;5;3;0.2;1.4;1199;2.50208507089241;0.4499513;2.036231;0.3657302;2.078469;-0.2394138;0.8422151;-0.2459986;0.9114074;
637952064882369075;1442.901;6;5;3;0.2;1.4;1099;2.72975432211101;-0.6062176;1.15;-0.5622341;1.134963;0.4499513;2.036231;0.3657302;2.078469;
637952064893532064;1444.031;6;5;3;0.2;1.4;1131;2.6525198938992;0.6893654;1.621554;0.5932995;1.647178;-0.6062176;1.15;-0.5622341;1.134963;
637952064910276532;1445.699;6;5;3;0.2;1.4;1668;1.79856115107914;-0.6893655;1.621553;-0.6299596;1.58729;0.6893654;1.621554;0.5932995;1.647178;
637952064925280541;1447.199;6;5;3;0.2;1.4;1499;2.00133422281521;0.6062179;1.15;0.5487344;1.226413;-0.6893655;1.621553;-0.6299596;1.58729;
637952064936263478;1448.298;6;5;3;0.2;1.4;1099;2.72975432211101;-0.4499517;2.036231;-0.4036937;1.961499;0.6062179;1.15;0.5487344;1.226413;
637952064945285890;1449.199;6;5;3;0.2;1.4;901;3.32963374028857;0.2394144;0.8422153;0.1884224;0.8518995;-0.4499517;2.036231;-0.4036937;1.961499;
637952064983256037;1452.996;6;5;4.5;0.1;2.2;1899;2.3696682464455;-0.3762217;0.4663379;-0.39019;0.4305221;0;2.6;0.005189851;2.5583;
637952064999240314;1454.595;6;5;4.5;0.1;2.2;1599;2.81425891181989;0.7070663;2.342649;0.66856;2.327551;-0.3762217;0.4663379;-0.39019;0.4305221;
637952065025347286;1457.206;6;5;4.5;0.1;2.2;2610;1.72413793103448;-0.9526277;0.9499994;-0.9913766;0.9523717;0.7070663;2.342649;0.66856;2.327551;
637952065054335042;1460.104;6;5;4.5;0.1;2.2;2898;1.5527950310559;1.083289;1.691013;1.05964;1.702121;-0.9526277;0.9499994;-0.9913766;0.9523717;
637952065071329579;1461.803;6;5;4.5;0.1;2.2;1699;2.64861683343143;-1.083289;1.691012;-1.047689;1.718912;1.083289;1.691013;1.05964;1.702121;
637952065086633669;1463.341;6;5;4.5;0.1;2.2;1538;2.925877763329;0.9526281;0.9500003;0.9092253;0.9747945;-1.083289;1.691012;-1.047689;1.718912;
637952065102307865;1464.902;6;5;4.5;0.1;2.2;1561;2.88276745675849;-0.7070671;2.342648;-0.6685303;2.331836;0.9526281;0.9500003;0.9092253;0.9747945;
637952065121302941;1466.801;6;5;4.5;0.1;2.2;1899;2.3696682464455;0.3762226;0.4663382;0.3474313;0.4842135;-0.7070671;2.342648;-0.6685303;2.331836;
637952065161286785;1470.799;6;5;3.5;0.2;2;2352;1.48809523809524;-0.3420197;0.5603072;-0.3350933;0.649881;0;2.5;-0.0440381;2.410278;
637952065176389755;1472.309;6;5;3.5;0.2;2;1510;2.31788079470199;0.6427875;2.266045;0.5771745;2.240219;-0.3420197;0.5603072;-0.3350933;0.649881;
637952065194384564;1474.108;6;5;3.5;0.2;2;1799;1.94552529182879;-0.8660251;0.9999995;-0.8506907;1.066444;0.6427875;2.266045;0.5771745;2.240219;
637952065216374371;1476.307;6;5;3.5;0.2;2;2199;1.59163256025466;0.9848077;1.673648;0.9386452;1.701412;-0.8660251;0.9999995;-0.8506907;1.066444;
637952065228368654;1477.507;6;5;3.5;0.2;2;1199;2.91909924937448;-0.9848078;1.673648;-0.9473563;1.636332;0.9848077;1.673648;0.9386452;1.701412;
637952065244367361;1479.106;6;5;3.5;0.2;2;1599;2.18886804252658;0.8660256;1;0.7964814;1.04493;-0.9848078;1.673648;-0.9473563;1.636332;
637952065266353577;1481.305;6;5;3.5;0.2;2;2199;1.59163256025466;-0.6427882;2.266044;-0.6459169;2.211368;0.8660256;1;0.7964814;1.04493;
637952065279347044;1482.604;6;5;3.5;0.2;2;1299;2.69438029253272;0.3420205;0.5603075;0.323513;0.6385586;-0.6427882;2.266044;-0.6459169;2.211368;
637952065327439903;1487.413;6;5;4;0.1;1.4;2910;1.3745704467354;-0.2394138;0.8422151;-0.2507849;0.8434889;0;2.2;0.01045162;2.232436;
637952065352426583;1489.912;6;5;4;0.1;1.4;2499;1.60064025610244;0.4499513;2.036231;0.4161181;2.04018;-0.2394138;0.8422151;-0.2507849;0.8434889;
637952065370421393;1491.711;6;5;4;0.1;1.4;1799;2.22345747637576;-0.6062176;1.15;-0.617373;1.159979;0.4499513;2.036231;0.4161181;2.04018;
637952065392417273;1493.911;6;5;4;0.1;1.4;2199;1.81900864029104;0.6893654;1.621554;0.6677896;1.651209;-0.6062176;1.15;-0.617373;1.159979;
637952065405410745;1495.21;6;5;4;0.1;1.4;1299;3.07929176289453;-0.6893655;1.621553;-0.6865532;1.629269;0.6893654;1.621554;0.6677896;1.651209;
637952065421405022;1496.809;6;5;4;0.1;1.4;1599;2.50156347717323;0.6062179;1.15;0.5599836;1.168153;-0.6893655;1.621553;-0.6865532;1.629269;
637952065442390630;1498.908;6;5;4;0.1;1.4;2099;1.90566936636494;-0.4499517;2.036231;-0.4555854;2.038264;0.6062179;1.15;0.5599836;1.168153;
637952065458384913;1500.507;6;5;4;0.1;1.4;1599;2.50156347717323;0.2394144;0.8422153;0.23828;0.8862675;-0.4499517;2.036231;-0.4555854;2.038264;
637952066180744776;1572.74;6;6;1.5;1.1;2;1088;1.37867647058824;-0.3420197;0.5603072;-0.240717;0.9785147;0;2.5;0.09414873;2.163272;
637952066189737180;1573.64;6;6;1.5;1.1;2;900;1.66666666666667;0.6427875;2.266045;0.5087891;1.93854;-0.3420197;0.5603072;-0.240717;0.9785147;
637952066199849886;1574.651;6;6;1.5;1.1;2;1011;1.48367952522255;-0.8660251;0.9999995;-0.6290057;1.176453;0.6427875;2.266045;0.5087891;1.93854;
637952066230838169;1577.749;6;6;1.5;1.1;2;3098;0.484183344092963;0.9848077;1.673648;0.793828;1.664514;-0.8660251;0.9999995;-0.6290057;1.176453;
637952066242831375;1578.949;6;6;1.5;1.1;2;1200;1.25;-0.9848078;1.673648;-0.654323;1.801947;0.9848077;1.673648;0.793828;1.664514;
637952066254824064;1580.148;6;6;1.5;1.1;2;1199;1.25104253544621;0.8660256;1;0.5929195;1.280668;-0.9848078;1.673648;-0.654323;1.801947;
637952066265822920;1581.248;6;6;1.5;1.1;2;1099;1.36487716105551;-0.6427882;2.266044;-0.2978017;1.944166;0.8660256;1;0.5929195;1.280668;
637952066276815859;1582.347;6;6;1.5;1.1;2;1100;1.36363636363636;0.3420205;0.5603075;0.2920898;1.001029;-0.6427882;2.266044;-0.2978017;1.944166;
637952066309798438;1585.645;6;6;3.5;0.2;2;1699;2.06003531489111;-0.3420197;0.5603072;-0.2931023;0.5838611;0;2.5;-0.004740147;2.491654;
637952066323796952;1587.045;6;6;3.5;0.2;2;1400;2.5;0.6427875;2.266045;0.5950092;2.227363;-0.3420197;0.5603072;-0.2931023;0.5838611;
637952066339901258;1588.655;6;6;3.5;0.2;2;1610;2.17391304347826;-0.8660251;0.9999995;-0.8789413;1.079473;0.6427875;2.266045;0.5950092;2.227363;
637952066359886599;1590.654;6;6;3.5;0.2;2;1999;1.75087543771886;0.9848077;1.673648;0.8941513;1.675409;-0.8660251;0.9999995;-0.8789413;1.079473;
637952066374880605;1592.154;6;6;3.5;0.2;2;1499;2.33488992661775;-0.9848078;1.673648;-0.9019848;1.657347;0.9848077;1.673648;0.8941513;1.675409;
637952066389874614;1593.653;6;6;3.5;0.2;2;1499;2.33488992661775;0.8660256;1;0.860187;1.025655;-0.9848078;1.673648;-0.9019848;1.657347;
637952066402868090;1594.952;6;6;3.5;0.2;2;1299;2.69438029253272;-0.6427882;2.266044;-0.605609;2.216638;0.8660256;1;0.860187;1.025655;
637952066415871564;1596.252;6;6;3.5;0.2;2;1299;2.69438029253272;0.3420205;0.5603075;0.3332494;0.6110271;-0.6427882;2.266044;-0.605609;2.216638;
637952066446859851;1599.351;6;6;4;0.1;1.4;1200;3.33333333333333;-0.2394138;0.8422151;-0.2238355;0.8803058;0;2.2;0.01245037;2.220245;
637952066474847330;1602.149;6;6;4;0.1;1.4;2798;1.42959256611866;0.4499513;2.036231;0.4075634;2.015557;-0.2394138;0.8422151;-0.2238355;0.8803058;
637952066501944571;1604.859;6;6;4;0.1;1.4;2710;1.4760147601476;-0.6062176;1.15;-0.5985554;1.148589;0.4499513;2.036231;0.4075634;2.015557;
637952066529932059;1607.658;6;6;4;0.1;1.4;2799;1.4290818149339;0.6893654;1.621554;0.6511732;1.630088;-0.6062176;1.15;-0.5985554;1.148589;
637952066561920608;1610.856;6;6;4;0.1;1.4;3199;1.25039074710847;-0.6893655;1.621553;-0.6649599;1.649152;0.6893654;1.621554;0.6511732;1.630088;
637952066579910530;1612.655;6;6;4;0.1;1.4;1799;2.22345747637576;0.6062179;1.15;0.5844344;1.194857;-0.6893655;1.621553;-0.6649599;1.649152;
637952066592907519;1613.955;6;6;4;0.1;1.4;1300;3.07692307692308;-0.4499517;2.036231;-0.4276939;2.008918;0.6062179;1.15;0.5844344;1.194857;
637952066611895484;1615.854;6;6;4;0.1;1.4;1899;2.10637177461822;0.2394144;0.8422153;0.2196064;0.8361844;-0.4499517;2.036231;-0.4276939;2.008918;
637952066637997152;1618.464;6;6;2.5;0.3;1.4;1400;1.78571428571429;-0.2394138;0.8422151;-0.2143386;0.8783886;0;2.2;-0.006246921;2.157971;
637952066651990889;1619.863;6;6;2.5;0.3;1.4;1399;1.78699070764832;0.4499513;2.036231;0.438923;1.979862;-0.2394138;0.8422151;-0.2143386;0.8783886;
637952066670985969;1621.762;6;6;2.5;0.3;1.4;1899;1.31648235913639;-0.6062176;1.15;-0.5028861;1.24235;0.4499513;2.036231;0.438923;1.979862;
637952066684979710;1623.161;6;6;2.5;0.3;1.4;1399;1.78699070764832;0.6893654;1.621554;0.6405419;1.595727;-0.6062176;1.15;-0.5028861;1.24235;
637952066697973187;1624.461;6;6;2.5;0.3;1.4;1299;1.92455735180908;-0.6893655;1.621553;-0.6956745;1.527362;0.6893654;1.621554;0.6405419;1.595727;
637952066709966393;1625.66;6;6;2.5;0.3;1.4;1199;2.08507089241034;0.6062179;1.15;0.563548;1.17626;-0.6893655;1.621553;-0.6956745;1.527362;
637952066728951465;1627.559;6;6;2.5;0.3;1.4;1899;1.31648235913639;-0.4499517;2.036231;-0.3917899;1.942816;0.6062179;1.15;0.563548;1.17626;
637952066741004690;1628.764;6;6;2.5;0.3;1.4;1204;2.07641196013289;0.2394144;0.8422153;0.1698147;0.9103928;-0.4499517;2.036231;-0.3917899;1.942816;
637952066767061651;1631.369;6;6;3;0.2;1.4;1299;2.3094688221709;-0.2394138;0.8422151;-0.2629303;0.9076328;0;2.2;-0.02180811;2.162494;
637952066780045122;1632.668;6;6;3;0.2;1.4;1299;2.3094688221709;0.4499513;2.036231;0.4031034;2.055172;-0.2394138;0.8422151;-0.2629303;0.9076328;
637952066794038857;1634.068;6;6;3;0.2;1.4;1399;2.14438884917798;-0.6062176;1.15;-0.5591056;1.207644;0.4499513;2.036231;0.4031034;2.055172;
637952066806142098;1635.278;6;6;3;0.2;1.4;1210;2.47933884297521;0.6893654;1.621554;0.6417826;1.677106;-0.6062176;1.15;-0.5591056;1.207644;
637952066819145575;1636.577;6;6;3;0.2;1.4;1299;2.3094688221709;-0.6893655;1.621553;-0.6694894;1.644964;0.6893654;1.621554;0.6417826;1.677106;
637952066832139046;1637.877;6;6;3;0.2;1.4;1300;2.30769230769231;0.6062179;1.15;0.5418351;1.223839;-0.6893655;1.621553;-0.6694894;1.644964;
637952066843131992;1638.976;6;6;3;0.2;1.4;1099;2.72975432211101;-0.4499517;2.036231;-0.4157186;2.024055;0.6062179;1.15;0.5418351;1.223839;
637952066859126263;1640.576;6;6;3;0.2;1.4;1599;1.87617260787993;0.2394144;0.8422153;0.2130841;0.8523688;-0.4499517;2.036231;-0.4157186;2.024055;
637952066931095564;1647.772;6;6;4.5;0.1;2.2;5498;0.818479447071662;-0.3762217;0.4663379;-0.3805424;0.5024366;0;2.6;-0.02309809;2.607846;
637952066955193430;1650.182;6;6;4.5;0.1;2.2;2410;1.86721991701245;0.7070663;2.342649;0.6918917;2.354292;-0.3762217;0.4663379;-0.3805424;0.5024366;
637952066982181185;1652.881;6;6;4.5;0.1;2.2;2699;1.66728417932568;-0.9526277;0.9499994;-0.9384009;0.9673193;0.7070663;2.342649;0.6918917;2.354292;
637952066997285674;1654.391;6;6;4.5;0.1;2.2;1510;2.98013245033113;1.083289;1.691013;1.037789;1.692555;-0.9526277;0.9499994;-0.9384009;0.9673193;
637952067018281290;1656.49;6;6;4.5;0.1;2.2;2099;2.14387803716055;-1.083289;1.691012;-1.052747;1.662414;1.083289;1.691013;1.037789;1.692555;
637952067033275294;1657.99;6;6;4.5;0.1;2.2;1499;3.00200133422282;0.9526281;0.9500003;0.9347052;0.9704768;-1.083289;1.691012;-1.052747;1.662414;
637952067051270108;1659.789;6;6;4.5;0.1;2.2;1799;2.50138966092273;-0.7070671;2.342648;-0.6884241;2.307723;0.9526281;0.9500003;0.9347052;0.9704768;
637952067066264113;1661.288;6;6;4.5;0.1;2.2;1499;3.00200133422282;0.3762226;0.4663382;0.370941;0.5020518;-0.7070671;2.342648;-0.6884241;2.307723;
637952067096242128;1664.287;6;6;2;0.6;1.8;1599;1.25078173858662;-0.3078177;0.6542765;-0.1981946;0.8397105;0;2.4;-0.1206545;2.139789;
637952067110225865;1665.686;6;6;2;0.6;1.8;1399;1.42959256611866;0.5785087;2.18944;0.4948274;2.042875;-0.3078177;0.6542765;-0.1981946;0.8397105;
637952067133322035;1667.996;6;6;2;0.6;1.8;2310;0.865800865800866;-0.7794226;1.05;-0.6358616;1.238034;0.5785087;2.18944;0.4948274;2.042875;
637952067145325249;1669.196;6;6;2;0.6;1.8;1200;1.66666666666667;0.8863269;1.656283;0.7483853;1.645541;-0.7794226;1.05;-0.6358616;1.238034;
637952067155317919;1670.195;6;6;2;0.6;1.8;999;2.002002002002;-0.8863271;1.656283;-0.7529197;1.602605;0.8863269;1.656283;0.7483853;1.645541;
637952067165310595;1671.195;6;6;2;0.6;1.8;1000;2;0.779423;1.05;0.6294582;1.153713;-0.8863271;1.656283;-0.7529197;1.602605;
637952067177303798;1672.394;6;6;2;0.6;1.8;1199;1.66805671392827;-0.5785094;2.18944;-0.5205947;2.017729;0.779423;1.05;0.6294582;1.153713;
637952067188306737;1673.494;6;6;2;0.6;1.8;1100;1.81818181818182;0.3078185;0.6542768;0.3775027;0.9014152;-0.5785094;2.18944;-0.5205947;2.017729;
637952067939556835;1748.614;6;7;3.5;0.2;2;1398;2.5035765379113;-0.3420197;0.5603072;-0.276725;0.5914682;0;2.5;-0.01744311;2.495306;
637952067954660874;1750.125;6;7;3.5;0.2;2;1510;2.31788079470199;0.6427875;2.266045;0.563877;2.26535;-0.3420197;0.5603072;-0.276725;0.5914682;
637952067980647818;1752.724;6;7;3.5;0.2;2;2599;1.34667179684494;-0.8660251;0.9999995;-0.7921754;0.9605315;0.6427875;2.266045;0.563877;2.26535;
637952067996642094;1754.323;6;7;3.5;0.2;2;1599;2.18886804252658;0.9848077;1.673648;0.9593225;1.720035;-0.8660251;0.9999995;-0.7921754;0.9605315;
637952068009588612;1755.617;6;7;3.5;0.2;2;1295;2.7027027027027;-0.9848078;1.673648;-0.9549443;1.645872;0.9848077;1.673648;0.9593225;1.720035;
637952068023636622;1757.022;6;7;3.5;0.2;2;1404;2.49287749287749;0.8660256;1;0.8910825;1.05902;-0.9848078;1.673648;-0.9549443;1.645872;
637952068039630899;1758.621;6;7;3.5;0.2;2;1599;2.18886804252658;-0.6427882;2.266044;-0.617834;2.225989;0.8660256;1;0.8910825;1.05902;
637952068065617850;1761.219;6;7;3.5;0.2;2;2599;1.34667179684494;0.3420205;0.5603075;0.3212494;0.6393535;-0.6427882;2.266044;-0.617834;2.225989;
637952068108609335;1765.519;6;7;4.5;0.1;2.2;1601;2.8107432854466;-0.3762217;0.4663379;-0.3933235;0.5114553;0;2.6;-0.02275552;2.604326;
637952068123703373;1767.028;6;7;4.5;0.1;2.2;1509;2.98210735586481;0.7070663;2.342649;0.6810818;2.334424;-0.3762217;0.4663379;-0.3933235;0.5114553;
637952068146689516;1769.327;6;7;4.5;0.1;2.2;2299;1.9573727707699;-0.9526277;0.9499994;-0.9425089;0.9087406;0.7070663;2.342649;0.6810818;2.334424;
637952068166684863;1771.326;6;7;4.5;0.1;2.2;1999;2.25112556278139;1.083289;1.691013;1.053807;1.719767;-0.9526277;0.9499994;-0.9425089;0.9087406;
637952068181698875;1772.827;6;7;4.5;0.1;2.2;1501;2.99800133244504;-1.083289;1.691012;-1.053731;1.709181;1.083289;1.691013;1.053807;1.719767;
637952068196672883;1774.325;6;7;4.5;0.1;2.2;1498;3.00400534045394;0.9526281;0.9500003;0.9482322;0.9625629;-1.083289;1.691012;-1.053731;1.709181;
637952068211666887;1775.824;6;7;4.5;0.1;2.2;1499;3.00200133422282;-0.7070671;2.342648;-0.7103045;2.292946;0.9526281;0.9500003;0.9482322;0.9625629;
637952068228661428;1777.523;6;7;4.5;0.1;2.2;1699;2.64861683343143;0.3762226;0.4663382;0.3838328;0.5142804;-0.7070671;2.342648;-0.7103045;2.292946;
637952068253758139;1780.033;6;7;2.5;0.3;1.4;1309;1.90985485103132;-0.2394138;0.8422151;-0.1989715;0.9046112;0;2.2;-0.06501398;2.21434;
637952068265751344;1781.233;6;7;2.5;0.3;1.4;1199;2.08507089241034;0.4499513;2.036231;0.426923;2.085987;-0.2394138;0.8422151;-0.1989715;0.9046112;
637952068283135990;1782.978;6;7;2.5;0.3;1.4;1746;1.43184421534937;-0.6062176;1.15;-0.4575803;1.169672;0.4499513;2.036231;0.426923;2.085987;
637952068296744735;1784.331;6;7;2.5;0.3;1.4;1353;1.84774575018477;0.6893654;1.621554;0.6383535;1.652475;-0.6062176;1.15;-0.4575803;1.169672;
637952068307737677;1785.431;6;7;2.5;0.3;1.4;1099;2.27479526842584;-0.6893655;1.621553;-0.6684879;1.608117;0.6893654;1.621554;0.6383535;1.652475;
637952068328723284;1787.53;6;7;2.5;0.3;1.4;2099;1.19104335397808;0.6062179;1.15;0.5633482;1.208993;-0.6893655;1.621553;-0.6684879;1.608117;
637952068340734831;1788.73;6;7;2.5;0.3;1.4;1201;2.08159866777685;-0.4499517;2.036231;-0.3649378;1.933453;0.6062179;1.15;0.5633482;1.208993;
637952068354831200;1790.14;6;7;2.5;0.3;1.4;1409;1.77430801987225;0.2394144;0.8422153;0.2239853;0.9034561;-0.4499517;2.036231;-0.3649378;1.933453;
637952068377815070;1792.438;6;7;2;0.6;1.8;1099;1.81983621474067;-0.3078177;0.6542765;-0.3942562;0.8077489;0;2.4;-0.06562398;2.159749;
637952068389818281;1793.638;6;7;2;0.6;1.8;1200;1.66666666666667;0.5785087;2.18944;0.4371587;2.013794;-0.3078177;0.6542765;-0.3942562;0.8077489;
637952068401801480;1794.837;6;7;2;0.6;1.8;1199;1.66805671392827;-0.7794226;1.05;-0.5772808;1.083814;0.5785087;2.18944;0.4371587;2.013794;
637952068430799239;1797.736;6;7;2;0.6;1.8;2899;0.689893066574681;0.8863269;1.656283;0.7397574;1.610879;-0.7794226;1.05;-0.5772808;1.083814;
637952068443792707;1799.036;6;7;2;0.6;1.8;1299;1.53964588144727;-0.8863271;1.656283;-0.6942924;1.704267;0.8863269;1.656283;0.7397574;1.610879;
637952068457786451;1800.435;6;7;2;0.6;1.8;1399;1.42959256611866;0.779423;1.05;0.6234141;1.182289;-0.8863271;1.656283;-0.6942924;1.704267;
637952068483813408;1803.038;6;7;2;0.6;1.8;2603;0.768344218209758;-0.5785094;2.18944;-0.4661554;2.017633;0.779423;1.05;0.6234141;1.182289;
637952068498787412;1804.535;6;7;2;0.6;1.8;1497;1.33600534402138;0.3078185;0.6542768;0.233188;0.9021446;-0.5785094;2.18944;-0.4661554;2.017633;
637952068569846401;1811.641;6;7;4;0.1;1.4;1899;2.10637177461822;-0.2394138;0.8422151;-0.261121;0.8756406;0;2.2;0.02404383;2.198881;
637952068584950441;1813.151;6;7;4;0.1;1.4;1510;2.64900662251656;0.4499513;2.036231;0.4340135;2.003461;-0.2394138;0.8422151;-0.261121;0.8756406;
637952068603955521;1815.052;6;7;4;0.1;1.4;1901;2.10415570752236;-0.6062176;1.15;-0.583626;1.128687;0.4499513;2.036231;0.4340135;2.003461;
637952068618939526;1816.55;6;7;4;0.1;1.4;1498;2.67022696929239;0.6893654;1.621554;0.6474878;1.648836;-0.6062176;1.15;-0.583626;1.128687;
637952068632933266;1817.949;6;7;4;0.1;1.4;1399;2.85918513223731;-0.6893655;1.621553;-0.690047;1.651102;0.6893654;1.621554;0.6474878;1.648836;
637952068648927549;1819.548;6;7;4;0.1;1.4;1599;2.50156347717323;0.6062179;1.15;0.5986881;1.172427;-0.6893655;1.621553;-0.690047;1.651102;
637952068663916747;1821.047;6;7;4;0.1;1.4;1499;2.66844563042028;-0.4499517;2.036231;-0.4274986;2.020318;0.6062179;1.15;0.5986881;1.172427;
637952068680907678;1822.747;6;7;4;0.1;1.4;1699;2.35432607416127;0.2394144;0.8422153;0.2242816;0.8602085;-0.4499517;2.036231;-0.4274986;2.020318;
637952068701903290;1824.845;6;7;1.5;1.1;2;1099;1.36487716105551;-0.3420197;0.5603072;-0.2217495;1.000168;0;2.5;-0.008059502;2.137306;
637952068716007059;1826.256;6;7;1.5;1.1;2;1411;1.06307583274274;0.6427875;2.266045;0.4980731;1.759375;-0.3420197;0.5603072;-0.2217495;1.000168;
637952068730020867;1827.657;6;7;1.5;1.1;2;1401;1.07066381156317;-0.8660251;0.9999995;-0.5976263;1.387765;0.6427875;2.266045;0.4980731;1.759375;
637952068739996084;1828.655;6;7;1.5;1.1;2;998;1.50300601202405;0.9848077;1.673648;0.5168861;1.693326;-0.8660251;0.9999995;-0.5976263;1.387765;
637952068751988594;1829.854;6;7;1.5;1.1;2;1200;1.25;-0.9848078;1.673648;-0.5303434;1.669902;0.9848077;1.673648;0.5168861;1.693326;
637952068761101033;1830.765;6;7;1.5;1.1;2;911;1.64654226125137;0.8660256;1;0.5616769;1.338868;-0.9848078;1.673648;-0.5303434;1.669902;
637952068777095308;1832.365;6;7;1.5;1.1;2;1599;0.938086303939963;-0.6427882;2.266044;-0.2613047;1.975929;0.8660256;1;0.5616769;1.338868;
637952068789106859;1833.565;6;7;1.5;1.1;2;1201;1.24895920066611;0.3420205;0.5603075;0.3065939;1.010337;-0.6427882;2.266044;-0.2613047;1.975929;
637952068826066942;1837.262;6;7;3;0.2;1.4;1900;1.57894736842105;-0.2394138;0.8422151;-0.1916605;0.8925853;0;2.2;0.001835279;2.153176;
637952068839107707;1838.565;6;7;3;0.2;1.4;1303;2.30237912509593;0.4499513;2.036231;0.4167529;2.02268;-0.2394138;0.8422151;-0.1916605;0.8925853;
637952068853078719;1839.963;6;7;3;0.2;1.4;1397;2.14745884037223;-0.6062176;1.15;-0.573523;1.220654;0.4499513;2.036231;0.4167529;2.02268;
637952068867169983;1841.372;6;7;3;0.2;1.4;1409;2.1291696238467;0.6893654;1.621554;0.6685427;1.57097;-0.6062176;1.15;-0.573523;1.220654;
637952068880178462;1842.672;6;7;3;0.2;1.4;1301;2.30591852421214;-0.6893655;1.621553;-0.6778769;1.669283;0.6893654;1.621554;0.6685427;1.57097;
637952068892154452;1843.87;6;7;3;0.2;1.4;1198;2.50417362270451;0.6062179;1.15;0.5786245;1.234633;-0.6893655;1.621553;-0.6778769;1.669283;
637952068905387991;1845.201;6;7;3;0.2;1.4;1330;2.25563909774436;-0.4499517;2.036231;-0.3585311;1.99613;0.6062179;1.15;0.5786245;1.234633;
637952068923144606;1846.969;6;7;3;0.2;1.4;1768;1.69683257918552;0.2394144;0.8422153;0.2013877;0.9115543;-0.4499517;2.036231;-0.3585311;1.99613;
