637952975068854885;574.4526;7;0;2.5;0.3;1.4;1100;2.27272727272727;-0.2394138;0.8422151;-0.3166066;0.9663723;0;2.2;-0.01034721;2.171823;
637952975078845642;575.452;7;0;2.5;0.3;1.4;999;2.5025025025025;0.4499513;2.036231;0.3253408;2.067589;-0.2394138;0.8422151;-0.3166066;0.9663723;
637952975102838828;577.851;7;0;2.5;0.3;1.4;2399;1.04210087536474;-0.6062176;1.15;-0.5584053;1.119987;0.4499513;2.036231;0.3253408;2.067589;
637952975120828838;579.6503;7;0;2.5;0.3;1.4;1799;1.38966092273485;0.6893654;1.621554;0.7177807;1.616563;-0.6062176;1.15;-0.5584053;1.119987;
637952975133931612;580.9604;7;0;2.5;0.3;1.4;1310;1.90839694656489;-0.6893655;1.621553;-0.6355309;1.605377;0.6893654;1.621554;0.7177807;1.616563;
637952975140933085;581.6604;7;0;2.5;0.3;1.4;700;3.57142857142857;0.6062179;1.15;0.558146;1.14066;-0.6893655;1.621553;-0.6355309;1.605377;
637952975149924983;582.5598;7;0;2.5;0.3;1.4;899;2.78086763070078;-0.4499517;2.036231;-0.4468131;2.08535;0.6062179;1.15;0.558146;1.14066;
637952975160157146;583.5903;7;0;2.5;0.3;1.4;1031;2.42483026188167;0.2394144;0.8422153;0.1198872;0.7722967;-0.4499517;2.036231;-0.4468131;2.08535;
637952975176910688;585.2585;7;0;3;0.2;1.4;1154;2.59965337954939;-0.2394138;0.8422151;-0.3130926;0.8681046;0;2.2;0.03686826;2.115149;
637952975195904696;587.1577;7;0;3;0.2;1.4;1899;1.57977883096367;0.4499513;2.036231;0.3565271;2.008076;-0.2394138;0.8422151;-0.3130926;0.8681046;
637952975204906599;588.0577;7;0;3;0.2;1.4;900;3.33333333333333;-0.6062176;1.15;-0.563929;1.183613;0.4499513;2.036231;0.3565271;2.008076;
637952975211898076;588.7571;7;0;3;0.2;1.4;699;4.29184549356223;0.6893654;1.621554;0.7039534;1.666097;-0.6062176;1.15;-0.563929;1.183613;
637952975226891241;590.2565;7;0;3;0.2;1.4;1499;2.00133422281521;-0.6893655;1.621553;-0.6909283;1.622852;0.6893654;1.621554;0.7039534;1.666097;
637952975258988022;593.466;7;0;3;0.2;1.4;3209;0.934870676223122;0.6062179;1.15;0.6174937;1.24928;-0.6893655;1.621553;-0.6909283;1.622852;
637952975287974146;596.3648;7;0;3;0.2;1.4;2899;1.03483959986202;-0.4499517;2.036231;-0.4791096;1.957189;0.6062179;1.15;0.6174937;1.24928;
637952975327952592;600.3629;7;0;3;0.2;1.4;3998;0.750375187593797;0.2394144;0.8422153;0.1779874;0.8690876;-0.4499517;2.036231;-0.4791096;1.957189;
637952975343055778;601.8734;7;0;1.5;1.1;2;711;2.10970464135021;-0.3420197;0.5603072;-0.2844307;1.105624;0;2.5;-0.000569934;2.334397;
637952975350057257;602.5727;7;0;1.5;1.1;2;699;2.14592274678112;0.6427875;2.266045;0.283565;1.910079;-0.3420197;0.5603072;-0.2844307;1.105624;
637952975365040426;604.072;7;0;1.5;1.1;2;1499;1.00066711140761;-0.8660251;0.9999995;-0.7119778;1.255629;0.6427875;2.266045;0.283565;1.910079;
637952975373042115;604.872;7;0;1.5;1.1;2;800;1.875;0.9848077;1.673648;0.9216895;1.924995;-0.8660251;0.9999995;-0.7119778;1.255629;
637952975381043805;605.6715;7;0;1.5;1.1;2;800;1.875;-0.9848078;1.673648;-0.7546431;1.902446;0.9848077;1.673648;0.9216895;1.924995;
637952975387035071;606.2714;7;0;1.5;1.1;2;600;2.5;0.8660256;1;0.9393005;1.344318;-0.9848078;1.673648;-0.7546431;1.902446;
637952975395028538;607.0707;7;0;1.5;1.1;2;799;1.87734668335419;-0.6427882;2.266044;-0.4262337;2.097979;0.8660256;1;0.9393005;1.344318;
637952975403020227;607.8703;7;0;1.5;1.1;2;800;1.875;0.3420205;0.5603075;0.5253568;0.9379107;-0.6427882;2.266044;-0.4262337;2.097979;
637952975423014448;609.8693;7;0;4;0.1;1.4;953;4.19727177334732;-0.2394138;0.8422151;-0.2111112;0.8628156;0;2.2;-0.03712452;2.187602;
637952975453996420;612.9679;7;0;4;0.1;1.4;3099;1.29073894804776;0.4499513;2.036231;0.4252066;2.043524;-0.2394138;0.8422151;-0.2111112;0.8628156;
637952975491472136;616.7229;7;0;4;0.1;1.4;3755;1.06524633821571;-0.6062176;1.15;-0.6225991;1.196589;0.4499513;2.036231;0.4252066;2.043524;
637952975521331983;619.7082;7;0;4;0.1;1.4;2985;1.34003350083752;0.6893654;1.621554;0.6805346;1.670127;-0.6062176;1.15;-0.6225991;1.196589;
637952975533084463;620.8757;7;0;4;0.1;1.4;1168;3.42465753424658;-0.6893655;1.621553;-0.6434289;1.622133;0.6893654;1.621554;0.6805346;1.670127;
637952975641117290;631.679;7;0;4;0.1;1.4;10803;0.370267518281959;0.6062179;1.15;0.5899198;1.172155;-0.6893655;1.621553;-0.6434289;1.622133;
637952975658140880;633.3817;7;0;4;0.1;1.4;1703;2.34879624192601;-0.4499517;2.036231;-0.4779985;2.04296;0.6062179;1.15;0.5899198;1.172155;
637952975678115105;635.3799;7;0;4;0.1;1.4;1998;2.002002002002;0.2394144;0.8422153;0.1919594;0.8575414;-0.4499517;2.036231;-0.4779985;2.04296;
637952975721104181;639.6782;7;0;4.5;0.1;2.2;2599;1.73143516737207;-0.3762217;0.4663379;-0.3676446;0.4969851;0;2.6;0.01690323;2.564067;
637952975814167556;648.9849;7;0;4.5;0.1;2.2;9307;0.483507037713549;0.7070663;2.342649;0.6733693;2.327826;-0.3762217;0.4663379;-0.3676446;0.4969851;
637952975833151565;650.8837;7;0;4.5;0.1;2.2;1899;2.3696682464455;-0.9526277;0.9499994;-0.9365527;0.9651154;0.7070663;2.342649;0.6733693;2.327826;
637952975851455432;652.7213;7;0;4.5;0.1;2.2;1838;2.44831338411317;1.083289;1.691013;1.1019;1.691706;-0.9526277;0.9499994;-0.9365527;0.9651154;
637952975875130434;655.0817;7;0;4.5;0.1;2.2;2360;1.90677966101695;-1.083289;1.691012;-1.082023;1.66389;1.083289;1.691013;1.1019;1.691706;
637952975916119092;659.1801;7;0;4.5;0.1;2.2;4098;1.09809663250366;0.9526281;0.9500003;0.942645;0.9454311;-1.083289;1.691012;-1.082023;1.66389;
637952975939223975;661.4904;7;0;4.5;0.1;2.2;2310;1.94805194805195;-0.7070671;2.342648;-0.7570393;2.340949;0.9526281;0.9500003;0.942645;0.9454311;
637952975964199246;663.9889;7;0;4.5;0.1;2.2;2498;1.80144115292234;0.3762226;0.4663382;0.366011;0.4481356;-0.7070671;2.342648;-0.7570393;2.340949;
637952975981192840;665.6881;7;0;2;0.6;1.8;800;2.5;-0.3078177;0.6542765;-0.3024378;0.9173483;0;2.4;0.0585171;2.372037;
637952975995185797;667.0872;7;0;2;0.6;1.8;1399;1.42959256611866;0.5785087;2.18944;0.5349494;2.252436;-0.3078177;0.6542765;-0.3024378;0.9173483;
637952976003187486;667.887;7;0;2;0.6;1.8;800;2.5;-0.7794226;1.05;-0.6996023;1.134904;0.5785087;2.18944;0.5349494;2.252436;
637952976011179175;668.6867;7;0;2;0.6;1.8;800;2.5;0.8863269;1.656283;0.7610398;1.664533;-0.7794226;1.05;-0.6996023;1.134904;
637952976019180864;669.4862;7;0;2;0.6;1.8;799;2.50312891113892;-0.8863271;1.656283;-1.160027;1.623849;0.8863269;1.656283;0.7610398;1.664533;
637952976033163823;670.8854;7;0;2;0.6;1.8;1399;1.42959256611866;0.779423;1.05;0.5265381;1.174731;-0.8863271;1.656283;-1.160027;1.623849;
637952976041165510;671.6851;7;0;2;0.6;1.8;800;2.5;-0.5785094;2.18944;-0.5568364;2.129755;0.779423;1.05;0.5265381;1.174731;
637952976049157195;672.4847;7;0;2;0.6;1.8;800;2.5;0.3078185;0.6542768;0.3130429;0.6847833;-0.5785094;2.18944;-0.5568364;2.129755;
637952976076252920;675.1946;7;0;3.5;0.2;2;1699;2.06003531489111;-0.3420197;0.5603072;-0.3322189;0.5353819;0;2.5;0.05597816;2.532248;
637952976088635537;676.4396;7;0;3.5;0.2;2;1245;2.81124497991968;0.6427875;2.266045;0.5604672;2.212273;-0.3420197;0.5603072;-0.3322189;0.5353819;
637952976101248200;677.6939;7;0;3.5;0.2;2;1254;2.79106858054226;-0.8660251;0.9999995;-0.8608288;1.046307;0.6427875;2.266045;0.5604672;2.212273;
637952976116251746;679.1932;7;0;3.5;0.2;2;1499;2.33488992661775;0.9848077;1.673648;1.045186;1.651865;-0.8660251;0.9999995;-0.8608288;1.046307;
637952976128234274;680.3923;7;0;3.5;0.2;2;1199;2.91909924937448;-0.9848078;1.673648;-0.9478458;1.683311;0.9848077;1.673648;1.045186;1.651865;
637952976140226806;681.5917;7;0;3.5;0.2;2;1199;2.91909924937448;0.8660256;1;0.878885;0.9541423;-0.9848078;1.673648;-0.9478458;1.683311;
637952976163221795;683.8909;7;0;3.5;0.2;2;2299;1.52240104393214;-0.6427882;2.266044;-0.6151804;2.244744;0.8660256;1;0.878885;0.9541423;
637952976174574258;685.0341;7;0;3.5;0.2;2;1143;3.06211723534558;0.3420205;0.5603075;0.293614;0.6475027;-0.6427882;2.266044;-0.6151804;2.244744;
637952977625739318;830.1451;7;1;4.5;0.1;2.2;2899;1.55225939979303;-0.3762217;0.4663379;-0.3716711;0.5010835;0;2.6;-0.02469722;2.578116;
637952977678959319;835.4734;7;1;4.5;0.1;2.2;5328;0.844594594594595;0.7070663;2.342649;0.7503758;2.348827;-0.3762217;0.4663379;-0.3716711;0.5010835;
637952977701822377;837.7527;7;1;4.5;0.1;2.2;2279;1.97455024133392;-0.9526277;0.9499994;-0.9433327;0.9658714;0.7070663;2.342649;0.7503758;2.348827;
637952977721115530;839.6896;7;1;4.5;0.1;2.2;1937;2.32318017552917;1.083289;1.691013;1.072536;1.650158;-0.9526277;0.9499994;-0.9433327;0.9658714;
637952977767791226;844.3499;7;1;4.5;0.1;2.2;4660;0.965665236051502;-1.083289;1.691012;-1.073489;1.682108;1.083289;1.691013;1.072536;1.650158;
637952977784774947;846.0487;7;1;4.5;0.1;2.2;1699;2.64861683343143;0.9526281;0.9500003;0.9316342;0.952126;-1.083289;1.691012;-1.073489;1.682108;
637952977806159632;848.1938;7;1;4.5;0.1;2.2;2145;2.0979020979021;-0.7070671;2.342648;-0.6612725;2.346695;0.9526281;0.9500003;0.9316342;0.952126;
637952977825873947;850.1584;7;1;4.5;0.1;2.2;1965;2.29007633587786;0.3762226;0.4663382;0.357266;0.4710765;-0.7070671;2.342648;-0.6612725;2.346695;
637952977841867452;851.7576;7;1;2;0.6;1.8;700;2.85714285714286;-0.3078177;0.6542765;-0.2492943;0.9130538;0;2.4;0.1251011;2.280287;
637952977847858764;852.3571;7;1;2;0.6;1.8;599;3.33889816360601;0.5785087;2.18944;0.569182;2.138528;-0.3078177;0.6542765;-0.2492943;0.9130538;
637952977854250167;853.003;7;1;2;0.6;1.8;646;3.09597523219814;-0.7794226;1.05;-0.9912605;0.8871495;0.5785087;2.18944;0.569182;2.138528;
637952977860121448;853.5903;7;1;2;0.6;1.8;587;3.40715502555366;0.8863269;1.656283;1.067387;1.547496;-0.7794226;1.05;-0.9912605;0.8871495;
637952977874844673;855.0557;7;1;2;0.6;1.8;1465;1.36518771331058;-0.8863271;1.656283;-0.6636381;1.692294;0.8863269;1.656283;1.067387;1.547496;
637952977881846210;855.7557;7;1;2;0.6;1.8;700;2.85714285714286;0.779423;1.05;0.6985878;0.952149;-0.8863271;1.656283;-0.6636381;1.692294;
637952977898839930;857.4547;7;1;2;0.6;1.8;1699;1.17716303708064;-0.5785094;2.18944;-0.5178714;2.22862;0.779423;1.05;0.6985878;0.952149;
637952977906831681;858.2543;7;1;2;0.6;1.8;800;2.5;0.3078185;0.6542768;0.2338909;0.6222851;-0.5785094;2.18944;-0.5178714;2.22862;
637952977936938275;861.2641;7;1;3;0.2;1.4;2010;1.49253731343284;-0.2394138;0.8422151;-0.3194106;0.8912039;0;2.2;0.04733185;2.224744;
637952977948920900;862.4634;7;1;3;0.2;1.4;1199;2.50208507089241;0.4499513;2.036231;0.3776034;2.0715;-0.2394138;0.8422151;-0.3194106;0.8912039;
637952977970915717;864.6625;7;1;3;0.2;1.4;2199;1.36425648021828;-0.6062176;1.15;-0.6602911;1.186237;0.4499513;2.036231;0.3776034;2.0715;
637952977986909219;866.2614;7;1;3;0.2;1.4;1599;1.87617260787993;0.6893654;1.621554;0.6378729;1.706821;-0.6062176;1.15;-0.6602911;1.186237;
637952978000902285;867.661;7;1;3;0.2;1.4;1400;2.14285714285714;-0.6893655;1.621553;-0.6749898;1.693933;0.6893654;1.621554;0.6378729;1.706821;
637952978060197083;873.5988;7;1;3;0.2;1.4;5938;0.50522061300101;0.6062179;1.15;0.5856203;1.05661;-0.6893655;1.621553;-0.6749898;1.693933;
637952978074963996;875.0686;7;1;3;0.2;1.4;1470;2.04081632653061;-0.4499517;2.036231;-0.5238865;2.04085;0.6062179;1.15;0.5856203;1.05661;
637952978090964225;876.6683;7;1;3;0.2;1.4;1600;1.875;0.2394144;0.8422153;0.2448898;0.8918703;-0.4499517;2.036231;-0.5238865;2.04085;
637952978115942720;879.1668;7;1;3.5;0.2;2;1199;2.91909924937448;-0.3420197;0.5603072;-0.351567;0.5995638;0;2.5;-0.07306754;2.453282;
637952978134936882;881.0659;7;1;3.5;0.2;2;1899;1.84307530279094;0.6427875;2.266045;0.5947058;2.25515;-0.3420197;0.5603072;-0.351567;0.5995638;
637952978149930166;882.5651;7;1;3.5;0.2;2;1499;2.33488992661775;-0.8660251;0.9999995;-0.8001611;0.9589562;0.6427875;2.266045;0.5947058;2.25515;
637952978170024565;884.5754;7;1;3.5;0.2;2;2010;1.74129353233831;0.9848077;1.673648;0.9918465;1.686707;-0.8660251;0.9999995;-0.8001611;0.9589562;
637952978187018288;886.2746;7;1;3.5;0.2;2;1699;2.06003531489111;-0.9848078;1.673648;-0.9007814;1.685363;0.9848077;1.673648;0.9918465;1.686707;
637952978196310320;887.2112;7;1;3.5;0.2;2;937;3.73532550693703;0.8660256;1;0.9257018;0.934731;-0.9848078;1.673648;-0.9007814;1.685363;
637952978208012887;888.3735;7;1;3.5;0.2;2;1162;3.01204819277108;-0.6427882;2.266044;-0.6264757;2.184137;0.8660256;1;0.9257018;0.934731;
637952978231998138;890.7723;7;1;3.5;0.2;2;2399;1.45894122551063;0.3420205;0.5603075;0.3068892;0.6325408;-0.6427882;2.266044;-0.6264757;2.184137;
637952978261984707;893.771;7;1;2.5;0.3;1.4;1099;2.27479526842584;-0.2394138;0.8422151;-0.1742711;0.801809;0;2.2;-0.07856132;2.214267;
637952978276087799;895.1817;7;1;2.5;0.3;1.4;1411;1.77179305457123;0.4499513;2.036231;0.4078222;2.101597;-0.2394138;0.8422151;-0.1742711;0.801809;
637952978288080422;896.3807;7;1;2.5;0.3;1.4;1199;2.08507089241034;-0.6062176;1.15;-0.5538771;1.289474;0.4499513;2.036231;0.4078222;2.101597;
637952978300083053;897.5806;7;1;2.5;0.3;1.4;1200;2.08333333333333;0.6893654;1.621554;0.5944934;1.622139;-0.6062176;1.15;-0.5538771;1.289474;
637952978315066334;899.0795;7;1;2.5;0.3;1.4;1499;1.66777851901268;-0.6893655;1.621553;-0.6549209;1.619688;0.6893654;1.621554;0.5944934;1.622139;
637952978324288356;900.0087;7;1;2.5;0.3;1.4;929;2.69106566200215;0.6062179;1.15;0.6952235;1.058036;-0.6893655;1.621553;-0.6549209;1.619688;
637952978335060706;901.0787;7;1;2.5;0.3;1.4;1070;2.33644859813084;-0.4499517;2.036231;-0.4042569;2.054555;0.6062179;1.15;0.6952235;1.058036;
637952978348053562;902.3784;7;1;2.5;0.3;1.4;1300;1.92307692307692;0.2394144;0.8422153;0.1610875;0.9606248;-0.4499517;2.036231;-0.4042569;2.054555;
637952978380045711;905.5768;7;1;4;0.1;1.4;1965;2.03562340966921;-0.2394138;0.8422151;-0.2692178;0.8794283;0;2.2;-0.03687279;2.166467;
637952978413102502;908.8831;7;1;4;0.1;1.4;3306;1.20992135511192;0.4499513;2.036231;0.4180154;2.019414;-0.2394138;0.8422151;-0.2692178;0.8794283;
637952978435127155;911.085;7;1;4;0.1;1.4;2202;1.81653042688465;-0.6062176;1.15;-0.6254005;1.163363;0.4499513;2.036231;0.4180154;2.019414;
637952978448119999;912.3845;7;1;4;0.1;1.4;1299;3.07929176289453;0.6893654;1.621554;0.6826171;1.630605;-0.6062176;1.15;-0.6254005;1.163363;
637952978465117240;914.0841;7;1;4;0.1;1.4;1700;2.35294117647059;-0.6893655;1.621553;-0.6750981;1.654743;0.6893654;1.621554;0.6826171;1.630605;
637952978493208054;916.8938;7;1;4;0.1;1.4;2810;1.42348754448399;0.6062179;1.15;0.5870876;1.159794;-0.6893655;1.621553;-0.6750981;1.654743;
637952978508201347;918.393;7;1;4;0.1;1.4;1499;2.66844563042028;-0.4499517;2.036231;-0.4612574;2.025719;0.6062179;1.15;0.5870876;1.159794;
637952978530196158;920.5923;7;1;4;0.1;1.4;2199;1.81900864029104;0.2394144;0.8422153;0.2099856;0.8589196;-0.4499517;2.036231;-0.4612574;2.025719;
637952978543189004;921.8912;7;1;1.5;1.1;2;599;2.50417362270451;-0.3420197;0.5603072;-0.3697175;1.091701;0;2.5;0.02949971;2.231691;
637952978549180316;922.4909;7;1;1.5;1.1;2;600;2.5;0.6427875;2.266045;0.4458632;2.014818;-0.3420197;0.5603072;-0.3697175;1.091701;
637952978554191414;922.9911;7;1;1.5;1.1;2;500;3;-0.8660251;0.9999995;-1.067026;1.19233;0.6427875;2.266045;0.4458632;2.014818;
637952978559182506;923.4904;7;1;1.5;1.1;2;499;3.0060120240481;0.9848077;1.673648;0.7158319;1.625458;-0.8660251;0.9999995;-1.067026;1.19233;
637952978573175572;924.8899;7;1;1.5;1.1;2;1399;1.07219442458899;-0.9848078;1.673648;-0.8208961;1.7045;0.9848077;1.673648;0.7158319;1.625458;
637952978585168201;926.0891;7;1;1.5;1.1;2;1199;1.25104253544621;0.8660256;1;0.396349;1.207675;-0.9848078;1.673648;-0.8208961;1.7045;
637952978592169734;926.7893;7;1;1.5;1.1;2;700;2.14285714285714;-0.6427882;2.266044;-0.4077957;2.070012;0.8660256;1;0.396349;1.207675;
637952978599161264;927.4887;7;1;1.5;1.1;2;699;2.14592274678112;0.3420205;0.5603075;0.2865239;0.8257213;-0.6427882;2.266044;-0.4077957;2.070012;
637952979355474628;1003.12;7;2;3;0.2;1.4;999;3.003003003003;-0.2394138;0.8422151;-0.2378918;0.861322;0;2.2;0.0363101;2.287309;
637952979378739483;1005.455;7;2;3;0.2;1.4;2335;1.2847965738758;0.4499513;2.036231;0.485972;2.106813;-0.2394138;0.8422151;-0.2378918;0.861322;
637952979394449107;1007.018;7;2;3;0.2;1.4;1563;1.91938579654511;-0.6062176;1.15;-0.5964592;1.236772;0.4499513;2.036231;0.485972;2.106813;
637952979405449086;1008.118;7;2;3;0.2;1.4;1099;2.72975432211101;0.6893654;1.621554;0.6161286;1.642965;-0.6062176;1.15;-0.5964592;1.236772;
637952979424438877;1010.017;7;2;3;0.2;1.4;1899;1.57977883096367;-0.6893655;1.621553;-0.7762951;1.632245;0.6893654;1.621554;0.6161286;1.642965;
637952979437437208;1011.317;7;2;3;0.2;1.4;1299;2.3094688221709;0.6062179;1.15;0.566051;1.236826;-0.6893655;1.621553;-0.7762951;1.632245;
637952979455538715;1013.127;7;2;3;0.2;1.4;1810;1.65745856353591;-0.4499517;2.036231;-0.4191734;2.086271;0.6062179;1.15;0.566051;1.236826;
637952979475526524;1015.126;7;2;3;0.2;1.4;1999;1.50075037518759;0.2394144;0.8422153;0.1919649;0.7817087;-0.4499517;2.036231;-0.4191734;2.086271;
637952979516819738;1019.262;7;2;4.5;0.1;2.2;1537;2.92778139232271;-0.3762217;0.4663379;-0.3549881;0.427985;0;2.6;0.03130969;2.618585;
637952979534504628;1021.023;7;2;4.5;0.1;2.2;1761;2.55536626916525;0.7070663;2.342649;0.7295616;2.329097;-0.3762217;0.4663379;-0.3549881;0.427985;
637952979550488129;1022.623;7;2;4.5;0.1;2.2;1599;2.81425891181989;-0.9526277;0.9499994;-0.9727116;0.9942149;0.7070663;2.342649;0.7295616;2.329097;
637952979595588007;1027.132;7;2;4.5;0.1;2.2;4510;0.997782705099778;1.083289;1.691013;1.097118;1.699396;-0.9526277;0.9499994;-0.9727116;0.9942149;
637952979617572823;1029.33;7;2;4.5;0.1;2.2;2198;2.04731574158326;-1.083289;1.691012;-1.045574;1.70207;1.083289;1.691013;1.097118;1.699396;
637952979634566545;1031.03;7;2;4.5;0.1;2.2;1699;2.64861683343143;0.9526281;0.9500003;0.929676;0.9253957;-1.083289;1.691012;-1.045574;1.70207;
637952979651550266;1032.729;7;2;4.5;0.1;2.2;1699;2.64861683343143;-0.7070671;2.342648;-0.7159849;2.340487;0.9526281;0.9500003;0.929676;0.9253957;
637952979721635622;1039.736;7;2;4.5;0.1;2.2;7008;0.642123287671233;0.3762226;0.4663382;0.3978678;0.4347918;-0.7070671;2.342648;-0.7159849;2.340487;
637952979744620648;1042.035;7;2;3.5;0.2;2;1200;2.91666666666667;-0.3420197;0.5603072;-0.367614;0.5524728;0;2.5;-0.06536743;2.45748;
637952979757617179;1043.335;7;2;3.5;0.2;2;1299;2.69438029253272;0.6427875;2.266045;0.5516407;2.226427;-0.3420197;0.5603072;-0.367614;0.5524728;
637952979782605069;1045.834;7;2;3.5;0.2;2;2499;1.40056022408964;-0.8660251;0.9999995;-0.8732827;1.01863;0.6427875;2.266045;0.5516407;2.226427;
637952979794707721;1047.044;7;2;3.5;0.2;2;1210;2.89256198347107;0.9848077;1.673648;0.9201064;1.697388;-0.8660251;0.9999995;-0.8732827;1.01863;
637952979828695164;1050.443;7;2;3.5;0.2;2;3399;1.02971462194763;-0.9848078;1.673648;-0.9740651;1.727777;0.9848077;1.673648;0.9201064;1.697388;
637952979841688009;1051.742;7;2;3.5;0.2;2;1299;2.69438029253272;0.8660256;1;0.8877888;1.024162;-0.9848078;1.673648;-0.9740651;1.727777;
637952979852680419;1052.842;7;2;3.5;0.2;2;1100;3.18181818181818;-0.6427882;2.266044;-0.5664967;2.20294;0.8660256;1;0.8877888;1.024162;
637952979865673265;1054.141;7;2;3.5;0.2;2;1299;2.69438029253272;0.3420205;0.5603075;0.2769174;0.6153902;-0.6427882;2.266044;-0.5664967;2.20294;
637952979897660271;1057.34;7;2;4;0.1;1.4;1798;2.22469410456062;-0.2394138;0.8422151;-0.1998887;0.8631784;0;2.2;-0.01240845;2.222651;
637952979909662900;1058.539;7;2;4;0.1;1.4;1200;3.33333333333333;0.4499513;2.036231;0.4236619;2.006412;-0.2394138;0.8422151;-0.1998887;0.8631784;
637952979920875358;1059.668;7;2;4;0.1;1.4;1129;3.54295837023915;-0.6062176;1.15;-0.590356;1.195275;0.4499513;2.036231;0.4236619;2.006412;
637952979963964791;1063.977;7;2;4;0.1;1.4;4309;0.928289626363425;0.6893654;1.621554;0.7194377;1.653597;-0.6062176;1.15;-0.590356;1.195275;
637952979990730660;1066.647;7;2;4;0.1;1.4;2670;1.49812734082397;-0.6893655;1.621553;-0.6774972;1.588412;0.6893654;1.621554;0.7194377;1.653597;
637952980003833529;1067.957;7;2;4;0.1;1.4;1311;3.0511060259344;0.6062179;1.15;0.5787851;1.124731;-0.6893655;1.621553;-0.6774972;1.588412;
637952980022827687;1069.856;7;2;4;0.1;1.4;1899;2.10637177461822;-0.4499517;2.036231;-0.4679587;2.062028;0.6062179;1.15;0.5787851;1.124731;
637952980047818311;1072.355;7;2;4;0.1;1.4;2499;1.60064025610244;0.2394144;0.8422153;0.2102049;0.8652443;-0.4499517;2.036231;-0.4679587;2.062028;
637952980074801042;1075.054;7;2;2.5;0.3;1.4;1000;2.5;-0.2394138;0.8422151;-0.1651549;0.8649727;0;2.2;-0.009603169;2.113297;
637952980092794986;1076.853;7;2;2.5;0.3;1.4;1799;1.38966092273485;0.4499513;2.036231;0.3942137;1.984663;-0.2394138;0.8422151;-0.1651549;0.8649727;
637952980102785218;1077.852;7;2;2.5;0.3;1.4;999;2.5025025025025;-0.6062176;1.15;-0.5699974;1.211472;0.4499513;2.036231;0.3942137;1.984663;
637952980112777403;1078.852;7;2;2.5;0.3;1.4;1000;2.5;0.6893654;1.621554;0.6624597;1.611855;-0.6062176;1.15;-0.5699974;1.211472;
637952980123775137;1079.951;7;2;2.5;0.3;1.4;1100;2.27272727272727;-0.6893655;1.621553;-0.6285954;1.631799;0.6893654;1.621554;0.6624597;1.611855;
637952980138768420;1081.451;7;2;2.5;0.3;1.4;1499;1.66777851901268;0.6062179;1.15;0.6021456;1.170782;-0.6893655;1.621553;-0.6285954;1.631799;
637952980148770608;1082.451;7;2;2.5;0.3;1.4;1000;2.5;-0.4499517;2.036231;-0.3452576;1.993778;0.6062179;1.15;0.6021456;1.170782;
637952980164874139;1084.061;7;2;2.5;0.3;1.4;1610;1.5527950310559;0.2394144;0.8422153;0.19235;0.9278584;-0.4499517;2.036231;-0.3452576;1.993778;
637952980177866987;1085.36;7;2;1.5;1.1;2;600;2.5;-0.3420197;0.5603072;-0.3228208;0.8967329;0;2.5;0.03657633;2.226209;
637952980184858514;1086.06;7;2;1.5;1.1;2;699;2.14592274678112;0.6427875;2.266045;0.5414461;2.19204;-0.3420197;0.5603072;-0.3228208;0.8967329;
637952980191860049;1086.76;7;2;1.5;1.1;2;700;2.14285714285714;-0.8660251;0.9999995;-0.7056178;1.335937;0.6427875;2.266045;0.5414461;2.19204;
637952980197851363;1087.359;7;2;1.5;1.1;2;599;2.50417362270451;0.9848077;1.673648;1.057261;1.643754;-0.8660251;0.9999995;-0.7056178;1.335937;
637952980203852677;1087.959;7;2;1.5;1.1;2;600;2.5;-0.9848078;1.673648;-0.5989472;1.647863;0.9848077;1.673648;1.057261;1.643754;
637952980210854210;1088.659;7;2;1.5;1.1;2;700;2.14285714285714;0.8660256;1;0.5554799;0.9992198;-0.9848078;1.673648;-0.5989472;1.647863;
637952980216845522;1089.258;7;2;1.5;1.1;2;599;2.50417362270451;-0.6427882;2.266044;-0.4290658;2.004832;0.8660256;1;0.5554799;0.9992198;
637952980222846837;1089.858;7;2;1.5;1.1;2;600;2.5;0.3420205;0.5603075;0.3652753;0.7320446;-0.6427882;2.266044;-0.4290658;2.004832;
637952980236839903;1091.257;7;2;2;0.6;1.8;600;3.33333333333333;-0.3078177;0.6542765;-0.2306331;0.8147353;0;2.4;0.0780781;2.240162;
637952980243831434;1091.957;7;2;2;0.6;1.8;699;2.86123032904149;0.5785087;2.18944;0.5516934;2.191277;-0.3078177;0.6542765;-0.2306331;0.8147353;
637952980256824281;1093.256;7;2;2;0.6;1.8;1299;1.53964588144727;-0.7794226;1.05;-0.5930188;1.030849;0.5785087;2.18944;0.5516934;2.191277;
637952980263825817;1093.956;7;2;2;0.6;1.8;700;2.85714285714286;0.8863269;1.656283;0.5959252;1.641375;-0.7794226;1.05;-0.5930188;1.030849;
637952980269827128;1094.556;7;2;2;0.6;1.8;600;3.33333333333333;-0.8863271;1.656283;-0.9232472;1.661691;0.8863269;1.656283;0.5959252;1.641375;
637952980276818659;1095.255;7;2;2;0.6;1.8;700;2.85714285714286;0.779423;1.05;0.6571066;1.143555;-0.8863271;1.656283;-0.9232472;1.661691;
637952980286810853;1096.255;7;2;2;0.6;1.8;999;2.002002002002;-0.5785094;2.18944;-0.3206802;2.078648;0.779423;1.05;0.6571066;1.143555;
637952980295812823;1097.155;7;2;2;0.6;1.8;900;2.22222222222222;0.3078185;0.6542768;0.2695253;0.6531663;-0.5785094;2.18944;-0.3206802;2.078648;
637952981118120486;1179.386;7;3;1.5;1.1;2;703;2.13371266002845;-0.3420197;0.5603072;-0.3079299;0.9334884;0;2.5;-0.02269085;2.46375;
637952981127089712;1180.283;7;3;1.5;1.1;2;896;1.67410714285714;0.6427875;2.266045;0.4522904;2.029688;-0.3420197;0.5603072;-0.3079299;0.9334884;
637952981136191751;1181.193;7;3;1.5;1.1;2;911;1.64654226125137;-0.8660251;0.9999995;-0.6127482;1.268524;0.6427875;2.266045;0.4522904;2.029688;
637952981144279858;1182.001;7;3;1.5;1.1;2;808;1.85643564356436;0.9848077;1.673648;0.5267776;1.543471;-0.8660251;0.9999995;-0.6127482;1.268524;
637952981154192027;1182.993;7;3;1.5;1.1;2;991;1.51362260343088;-0.9848078;1.673648;-0.6630544;1.684554;0.9848077;1.673648;0.5267776;1.543471;
637952981163183999;1183.893;7;3;1.5;1.1;2;900;1.66666666666667;0.8660256;1;0.5851894;1.284127;-0.9848078;1.673648;-0.6630544;1.684554;
637952981170175529;1184.592;7;3;1.5;1.1;2;699;2.14592274678112;-0.6427882;2.266044;-0.6792064;2.149013;0.8660256;1;0.5851894;1.284127;
637952981178177283;1185.392;7;3;1.5;1.1;2;800;1.875;0.3420205;0.5603075;0.2929736;0.878105;-0.6427882;2.266044;-0.6792064;2.149013;
637952981197167015;1187.291;7;3;4.5;0.1;2.2;900;5;-0.3762217;0.4663379;-0.3783643;0.474758;0;2.6;-0.02610471;2.604079;
637952981218146460;1189.389;7;3;4.5;0.1;2.2;2099;2.14387803716055;0.7070663;2.342649;0.6777992;2.303339;-0.3762217;0.4663379;-0.3783643;0.474758;
637952981247134509;1192.288;7;3;4.5;0.1;2.2;2899;1.55225939979303;-0.9526277;0.9499994;-0.9122628;0.9369398;0.7070663;2.342649;0.6777992;2.303339;
637952981259137138;1193.488;7;3;4.5;0.1;2.2;1200;3.75;1.083289;1.691013;1.083853;1.715036;-0.9526277;0.9499994;-0.9122628;0.9369398;
637952981270239571;1194.598;7;3;4.5;0.1;2.2;1110;4.05405405405405;-1.083289;1.691012;-1.048324;1.691062;1.083289;1.691013;1.083853;1.715036;
637952981291234168;1196.697;7;3;4.5;0.1;2.2;2099;2.14387803716055;0.9526281;0.9500003;0.9163448;0.9678291;-1.083289;1.691012;-1.048324;1.691062;
637952981334213583;1200.995;7;3;4.5;0.1;2.2;4298;1.04699860400186;-0.7070671;2.342648;-0.6937749;2.33071;0.9526281;0.9500003;0.9163448;0.9678291;
637952981352207525;1202.794;7;3;4.5;0.1;2.2;1799;2.50138966092273;0.3762226;0.4663382;0.3711852;0.4684438;-0.7070671;2.342648;-0.6937749;2.33071;
637952981365200367;1204.094;7;3;2.5;0.3;1.4;600;4.16666666666667;-0.2394138;0.8422151;-0.2861386;0.7738764;0;2.2;0.06872001;2.117356;
637952981372421951;1204.824;7;3;2.5;0.3;1.4;730;3.42465753424658;0.4499513;2.036231;0.4681644;2.165596;-0.2394138;0.8422151;-0.2861386;0.7738764;
637952981383294333;1205.904;7;3;2.5;0.3;1.4;1080;2.31481481481481;-0.6062176;1.15;-0.569308;1.260482;0.4499513;2.036231;0.4681644;2.165596;
637952981390295867;1206.604;7;3;2.5;0.3;1.4;700;3.57142857142857;0.6893654;1.621554;0.6358733;1.665858;-0.6062176;1.15;-0.569308;1.260482;
637952981405289150;1208.103;7;3;2.5;0.3;1.4;1499;1.66777851901268;-0.6893655;1.621553;-0.6486855;1.608286;0.6893654;1.621554;0.6358733;1.665858;
637952981413290904;1208.903;7;3;2.5;0.3;1.4;800;3.125;0.6062179;1.15;0.5090851;1.12927;-0.6893655;1.621553;-0.6486855;1.608286;
637952981424273310;1210.002;7;3;2.5;0.3;1.4;1099;2.27479526842584;-0.4499517;2.036231;-0.4885093;1.971381;0.6062179;1.15;0.5090851;1.12927;
637952981431274841;1210.702;7;3;2.5;0.3;1.4;700;3.57142857142857;0.2394144;0.8422153;0.3339925;0.8253561;-0.4499517;2.036231;-0.4885093;1.971381;
637952981457260532;1213.301;7;3;3;0.2;1.4;1799;1.66759310728182;-0.2394138;0.8422151;-0.1684207;0.8201205;0;2.2;0.05605166;2.209552;
637952981470263383;1214.6;7;3;3;0.2;1.4;1300;2.30769230769231;0.4499513;2.036231;0.3767548;2.007685;-0.2394138;0.8422151;-0.1684207;0.8201205;
637952981482246005;1215.8;7;3;3;0.2;1.4;1199;2.50208507089241;-0.6062176;1.15;-0.5656398;1.163376;0.4499513;2.036231;0.3767548;2.007685;
637952981489257543;1216.5;7;3;3;0.2;1.4;700;4.28571428571429;0.6893654;1.621554;0.6386293;1.658536;-0.6062176;1.15;-0.5656398;1.163376;
637952981497239291;1217.299;7;3;3;0.2;1.4;799;3.75469336670839;-0.6893655;1.621553;-0.6445658;1.621883;0.6893654;1.621554;0.6386293;1.658536;
637952981508231698;1218.398;7;3;3;0.2;1.4;1099;2.72975432211101;0.6062179;1.15;0.5823106;1.210942;-0.6893655;1.621553;-0.6445658;1.621883;
637952981522234766;1219.797;7;3;3;0.2;1.4;1399;2.14438884917798;-0.4499517;2.036231;-0.4133955;2.029758;0.6062179;1.15;0.5823106;1.210942;
637952981531226728;1220.697;7;3;3;0.2;1.4;900;3.33333333333333;0.2394144;0.8422153;0.2195448;0.939803;-0.4499517;2.036231;-0.4133955;2.029758;
637952981543329385;1221.908;7;3;2;0.6;1.8;500;4;-0.3078177;0.6542765;-0.2344767;0.6972743;0;2.4;0.03217483;2.29089;
637952981549330701;1222.507;7;3;2;0.6;1.8;600;3.33333333333333;0.5785087;2.18944;0.5756572;2.262764;-0.3078177;0.6542765;-0.2344767;0.6972743;
637952981554331795;1223.007;7;3;2;0.6;1.8;500;4;-0.7794226;1.05;-0.8377559;0.9656062;0.5785087;2.18944;0.5756572;2.262764;
637952981560325834;1223.607;7;3;2;0.6;1.8;599;3.33889816360601;0.8863269;1.656283;0.9076445;1.773705;-0.7794226;1.05;-0.8377559;0.9656062;
637952981565323974;1224.107;7;3;2;0.6;1.8;500;4;-0.8863271;1.656283;-0.8307218;1.716242;0.8863269;1.656283;0.9076445;1.773705;
637952981582322748;1225.806;7;3;2;0.6;1.8;1700;1.17647058823529;0.779423;1.05;0.680156;1.08119;-0.8863271;1.656283;-0.8307218;1.716242;
637952981588310243;1226.406;7;3;2;0.6;1.8;599;3.33889816360601;-0.5785094;2.18944;-0.3136324;2.054568;0.779423;1.05;0.680156;1.08119;
637952981594311581;1227.005;7;3;2;0.6;1.8;599;3.33889816360601;0.3078185;0.6542768;0.4677278;0.7438308;-0.5785094;2.18944;-0.3136324;2.054568;
637952981620297832;1229.604;7;3;3.5;0.2;2;1799;1.94552529182879;-0.3420197;0.5603072;-0.2466337;0.5458925;0;2.5;0.004778545;2.530868;
637952981628287666;1230.404;7;3;3.5;0.2;2;799;4.38047559449312;0.6427875;2.266045;0.5967138;2.338794;-0.3420197;0.5603072;-0.2466337;0.5458925;
637952981642396972;1231.814;7;3;3.5;0.2;2;1410;2.4822695035461;-0.8660251;0.9999995;-0.7999607;1.071251;0.6427875;2.266045;0.5967138;2.338794;
637952981656613808;1233.243;7;3;3.5;0.2;2;1429;2.44926522043387;0.9848077;1.673648;0.9699443;1.769649;-0.8660251;0.9999995;-0.7999607;1.071251;
637952981669386604;1234.513;7;3;3.5;0.2;2;1270;2.75590551181102;-0.9848078;1.673648;-1.014296;1.72261;0.9848077;1.673648;0.9699443;1.769649;
637952981696372515;1237.212;7;3;3.5;0.2;2;2699;1.29677658391997;0.8660256;1;0.864266;1.006245;-0.9848078;1.673648;-1.014296;1.72261;
637952981707364924;1238.311;7;3;3.5;0.2;2;1100;3.18181818181818;-0.6427882;2.266044;-0.6187477;2.334839;0.8660256;1;0.864266;1.006245;
637952981735351051;1241.11;7;3;3.5;0.2;2;2798;1.25089349535382;0.3420205;0.5603075;0.292854;0.5295428;-0.6427882;2.266044;-0.6187477;2.334839;
637952981761456769;1243.72;7;3;4;0.1;1.4;1311;3.0511060259344;-0.2394138;0.8422151;-0.2339859;0.8888658;0;2.2;0.03290283;2.179826;
637952981775449834;1245.119;7;3;4;0.1;1.4;1399;2.85918513223731;0.4499513;2.036231;0.4735014;2.004098;-0.2394138;0.8422151;-0.2339859;0.8888658;
637952981787442463;1246.318;7;3;4;0.1;1.4;1199;3.33611342785655;-0.6062176;1.15;-0.6130461;1.193639;0.4499513;2.036231;0.4735014;2.004098;
637952981811427715;1248.717;7;3;4;0.1;1.4;2399;1.66736140058358;0.6893654;1.621554;0.6820369;1.576348;-0.6062176;1.15;-0.6130461;1.193639;
637952981822700187;1249.852;7;3;4;0.1;1.4;1135;3.52422907488987;-0.6893655;1.621553;-0.6477644;1.598615;0.6893654;1.621554;0.6820369;1.576348;
637952981844524965;1252.027;7;3;4;0.1;1.4;2175;1.83908045977011;0.6062179;1.15;0.5853847;1.122119;-0.6893655;1.621553;-0.6477644;1.598615;
637952981859518249;1253.526;7;3;4;0.1;1.4;1499;2.66844563042028;-0.4499517;2.036231;-0.4093131;2.038678;0.6062179;1.15;0.5853847;1.122119;
637952981874511534;1255.026;7;3;4;0.1;1.4;1500;2.66666666666667;0.2394144;0.8422153;0.2359747;0.8458945;-0.4499517;2.036231;-0.4093131;2.038678;
637952983089944440;1376.569;7;4;3.5;0.2;2;999;3.5035035035035;-0.3420197;0.5603072;-0.3304363;0.6385128;0;2.5;0.07972621;2.451882;
637952983099936627;1377.569;7;4;3.5;0.2;2;1000;3.5;0.6427875;2.266045;0.5905402;2.198289;-0.3420197;0.5603072;-0.3304363;0.6385128;
637952983120201065;1379.602;7;4;3.5;0.2;2;2034;1.72074729596854;-0.8660251;0.9999995;-0.8668399;0.9070145;0.6427875;2.266045;0.5905402;2.198289;
637952983145906701;1382.166;7;4;3.5;0.2;2;2564;1.36505460218409;0.9848077;1.673648;0.9529217;1.703575;-0.8660251;0.9999995;-0.8668399;0.9070145;
637952983155908888;1383.166;7;4;3.5;0.2;2;1000;3.5;-0.9848078;1.673648;-0.9785078;1.728465;0.9848077;1.673648;0.9529217;1.703575;
637952983172902610;1384.865;7;4;3.5;0.2;2;1699;2.06003531489111;0.8660256;1;0.8086348;1.034976;-0.9848078;1.673648;-0.9785078;1.728465;
637952983184895234;1386.065;7;4;3.5;0.2;2;1199;2.91909924937448;-0.6427882;2.266044;-0.6799942;2.314687;0.8660256;1;0.8086348;1.034976;
637952983195887643;1387.164;7;4;3.5;0.2;2;1099;3.18471337579618;0.3420205;0.5603075;0.3045122;0.6497676;-0.6427882;2.266044;-0.6799942;2.314687;
637952983224988167;1390.074;7;4;4;0.1;1.4;1899;2.10637177461822;-0.2394138;0.8422151;-0.2487266;0.8504677;0;2.2;0.02009605;2.17605;
637952983243262163;1391.909;7;4;4;0.1;1.4;1834;2.18102508178844;0.4499513;2.036231;0.4212885;2.075932;-0.2394138;0.8422151;-0.2487266;0.8504677;
637952983270964435;1394.672;7;4;4;0.1;1.4;2763;1.44770177343467;-0.6062176;1.15;-0.585563;1.170093;0.4499513;2.036231;0.4212885;2.075932;
637952983305947325;1398.17;7;4;4;0.1;1.4;3499;1.14318376679051;0.6893654;1.621554;0.6861063;1.61366;-0.6062176;1.15;-0.585563;1.170093;
637952983315939517;1399.17;7;4;4;0.1;1.4;999;4.004004004004;-0.6893655;1.621553;-0.6719015;1.648114;0.6893654;1.621554;0.6861063;1.61366;
637952983332053042;1400.78;7;4;4;0.1;1.4;1610;2.48447204968944;0.6062179;1.15;0.5755785;1.151042;-0.6893655;1.621553;-0.6719015;1.648114;
637952983365250314;1404.108;7;4;4;0.1;1.4;3328;1.20192307692308;-0.4499517;2.036231;-0.4868068;2.007477;0.6062179;1.15;0.5755785;1.151042;
637952983381029148;1405.678;7;4;4;0.1;1.4;1570;2.54777070063694;0.2394144;0.8422153;0.214079;0.8261087;-0.4499517;2.036231;-0.4868068;2.007477;
637952983394019181;1406.977;7;4;1.5;1.1;2;498;3.01204819277108;-0.3420197;0.5603072;-0.3648683;1.061086;0;2.5;0.04580542;2.268206;
637952983401018832;1407.677;7;4;1.5;1.1;2;700;2.14285714285714;0.6427875;2.266045;0.3083147;2.01756;-0.3420197;0.5603072;-0.3648683;1.061086;
637952983405019002;1408.077;7;4;1.5;1.1;2;400;3.75;-0.8660251;0.9999995;-0.8681658;1.407209;0.6427875;2.266045;0.3083147;2.01756;
637952983411008671;1408.676;7;4;1.5;1.1;2;599;2.50417362270451;0.9848077;1.673648;0.6870075;1.754178;-0.8660251;0.9999995;-0.8681658;1.407209;
637952983416008584;1409.177;7;4;1.5;1.1;2;500;3;-0.9848078;1.673648;-0.4736427;1.736795;0.9848077;1.673648;0.6870075;1.754178;
637952983429008891;1410.476;7;4;1.5;1.1;2;1299;1.15473441108545;0.8660256;1;0.8468205;1.265417;-0.9848078;1.673648;-0.4736427;1.736795;
637952983435998295;1411.175;7;4;1.5;1.1;2;700;2.14285714285714;-0.6427882;2.266044;-0.3024161;2.143329;0.8660256;1;0.8468205;1.265417;
637952983441998726;1411.775;7;4;1.5;1.1;2;600;2.5;0.3420205;0.5603075;0.3807692;0.8499392;-0.6427882;2.266044;-0.3024161;2.143329;
637952983474979128;1415.073;7;4;3;0.2;1.4;2599;1.15429011158138;-0.2394138;0.8422151;-0.2699362;0.8077459;0;2.2;0.02063538;2.193817;
637952983484087695;1415.984;7;4;3;0.2;1.4;911;3.29308452250274;0.4499513;2.036231;0.4142696;2.040769;-0.2394138;0.8422151;-0.2699362;0.8077459;
637952983492087312;1416.784;7;4;3;0.2;1.4;800;3.75;-0.6062176;1.15;-0.6282784;1.183486;0.4499513;2.036231;0.4142696;2.040769;
637952983509077304;1418.483;7;4;3;0.2;1.4;1699;1.76574455562095;0.6893654;1.621554;0.6489988;1.666758;-0.6062176;1.15;-0.6282784;1.183486;
637952983518076952;1419.383;7;4;3;0.2;1.4;899;3.33704115684093;-0.6893655;1.621553;-0.6745297;1.56915;0.6893654;1.621554;0.6489988;1.666758;
637952983543054814;1421.881;7;4;3;0.2;1.4;2499;1.20048019207683;0.6062179;1.15;0.6434101;1.203526;-0.6893655;1.621553;-0.6745297;1.56915;
637952983551056562;1422.681;7;4;3;0.2;1.4;800;3.75;-0.4499517;2.036231;-0.409168;2.063439;0.6062179;1.15;0.6434101;1.203526;
637952983565049631;1424.08;7;4;3;0.2;1.4;1399;2.14438884917798;0.2394144;0.8422153;0.201805;0.9259187;-0.4499517;2.036231;-0.409168;2.063439;
637952983577042258;1425.28;7;4;2;0.6;1.8;500;4;-0.3078177;0.6542765;-0.189364;0.8351816;0;2.4;0.07594977;2.287067;
637952983583043574;1425.88;7;4;2;0.6;1.8;600;3.33333333333333;0.5785087;2.18944;0.4320892;2.271394;-0.3078177;0.6542765;-0.189364;0.8351816;
637952983588044662;1426.38;7;4;2;0.6;1.8;500;4;-0.7794226;1.05;-0.8388023;1.203289;0.5785087;2.18944;0.4320892;2.271394;
637952983594146005;1426.99;7;4;2;0.6;1.8;610;3.27868852459016;0.8863269;1.656283;0.7924356;1.759112;-0.7794226;1.05;-0.8388023;1.203289;
637952983611139727;1428.69;7;4;2;0.6;1.8;1700;1.17647058823529;-0.8863271;1.656283;-1.092789;1.657064;0.8863269;1.656283;0.7924356;1.759112;
637952983630123886;1430.588;7;4;2;0.6;1.8;1899;1.05318588730911;0.779423;1.05;0.5697978;1.234846;-0.8863271;1.656283;-1.092789;1.657064;
637952983639125856;1431.488;7;4;2;0.6;1.8;900;2.22222222222222;-0.5785094;2.18944;-0.4839929;2.158705;0.779423;1.05;0.5697978;1.234846;
637952983645127172;1432.088;7;4;2;0.6;1.8;599;3.33889816360601;0.3078185;0.6542768;0.3501627;0.6101785;-0.5785094;2.18944;-0.4839929;2.158705;
637952983679104617;1435.486;7;4;2.5;0.3;1.4;2599;0.961908426317814;-0.2394138;0.8422151;-0.2712738;0.8584623;0;2.2;0.04530763;2.285429;
637952983687416433;1436.325;7;4;2.5;0.3;1.4;839;2.97973778307509;0.4499513;2.036231;0.3147306;1.976385;-0.2394138;0.8422151;-0.2712738;0.8584623;
637952983697098555;1437.286;7;4;2.5;0.3;1.4;960;2.60416666666667;-0.6062176;1.15;-0.4834483;1.155101;0.4499513;2.036231;0.3147306;1.976385;
637952983704090086;1437.985;7;4;2.5;0.3;1.4;699;3.57653791130186;0.6893654;1.621554;0.7554135;1.691179;-0.6062176;1.15;-0.4834483;1.155101;
637952983712091841;1438.785;7;4;2.5;0.3;1.4;800;3.125;-0.6893655;1.621553;-0.6358137;1.699978;0.6893654;1.621554;0.7554135;1.691179;
637952983721083808;1439.684;7;4;2.5;0.3;1.4;900;2.77777777777778;0.6062179;1.15;0.654125;1.206293;-0.6893655;1.621553;-0.6358137;1.699978;
637952983732086218;1440.784;7;4;2.5;0.3;1.4;1100;2.27272727272727;-0.4499517;2.036231;-0.3924765;2.003622;0.6062179;1.15;0.654125;1.206293;
637952983743078626;1441.883;7;4;2.5;0.3;1.4;1099;2.27479526842584;0.2394144;0.8422153;0.1554146;0.9624472;-0.4499517;2.036231;-0.3924765;2.003622;
637952983770174563;1444.593;7;4;4.5;0.1;2.2;1300;3.46153846153846;-0.3762217;0.4663379;-0.3672259;0.4975235;0;2.6;-0.008001039;2.627187;
637952983789168723;1446.492;7;4;4.5;0.1;2.2;1899;2.3696682464455;0.7070663;2.342649;0.6907194;2.311736;-0.3762217;0.4663379;-0.3672259;0.4975235;
637952983803161786;1447.892;7;4;4.5;0.1;2.2;1399;3.21658327376698;-0.9526277;0.9499994;-0.9072343;0.9477121;0.7070663;2.342649;0.6907194;2.311736;
637952983817152353;1449.291;7;4;4.5;0.1;2.2;1399;3.21658327376698;1.083289;1.691013;1.054116;1.659038;-0.9526277;0.9499994;-0.9072343;0.9477121;
637952983839144307;1451.49;7;4;4.5;0.1;2.2;2199;2.04638472032742;-1.083289;1.691012;-1.059169;1.684353;1.083289;1.691013;1.054116;1.659038;
637952983855130580;1453.089;7;4;4.5;0.1;2.2;1599;2.81425891181989;0.9526281;0.9500003;0.9286719;0.9755618;-1.083289;1.691012;-1.059169;1.684353;
637952983868127108;1454.389;7;4;4.5;0.1;2.2;1299;3.46420323325635;-0.7070671;2.342648;-0.6913171;2.29652;0.9526281;0.9500003;0.9286719;0.9755618;
637952983893232606;1456.899;7;4;4.5;0.1;2.2;2510;1.79282868525896;0.3762226;0.4663382;0.3759037;0.5027423;-0.7070671;2.342648;-0.6913171;2.29652;
637952984364474946;1504.021;7;5;2;0.6;1.8;1211;1.65152766308836;-0.3078177;0.6542765;-0.3305021;0.8787664;0;2.4;-0.07324962;2.396416;
637952984370466261;1504.621;7;5;2;0.6;1.8;600;3.33333333333333;0.5785087;2.18944;0.3718559;2.075227;-0.3078177;0.6542765;-0.3305021;0.8787664;
637952984376457571;1505.221;7;5;2;0.6;1.8;600;3.33333333333333;-0.7794226;1.05;-0.8629083;1.072991;0.5785087;2.18944;0.3718559;2.075227;
637952984383459107;1505.921;7;5;2;0.6;1.8;700;2.85714285714286;0.8863269;1.656283;0.589247;1.617515;-0.7794226;1.05;-0.8629083;1.072991;
637952984396451950;1507.22;7;5;2;0.6;1.8;1299;1.53964588144727;-0.8863271;1.656283;-0.7041166;1.578195;0.8863269;1.656283;0.589247;1.617515;
637952984402453264;1507.82;7;5;2;0.6;1.8;600;3.33333333333333;0.779423;1.05;0.7736968;1.19711;-0.8863271;1.656283;-0.7041166;1.578195;
637952984409444798;1508.519;7;5;2;0.6;1.8;700;2.85714285714286;-0.5785094;2.18944;-0.6917826;2.091983;0.779423;1.05;0.7736968;1.19711;
637952984417446547;1509.319;7;5;2;0.6;1.8;800;2.5;0.3078185;0.6542768;0.3293745;0.9148141;-0.5785094;2.18944;-0.6917826;2.091983;
637952984433440051;1510.918;7;5;2.5;0.3;1.4;900;2.77777777777778;-0.2394138;0.8422151;-0.2337168;0.9750624;0;2.2;-0.04935896;2.126542;
637952984439431364;1511.518;7;5;2.5;0.3;1.4;600;4.16666666666667;0.4499513;2.036231;0.4788769;2.148;-0.2394138;0.8422151;-0.2337168;0.9750624;
637952984445802763;1512.162;7;5;2.5;0.3;1.4;644;3.88198757763975;-0.6062176;1.15;-0.72215;1.137723;0.4499513;2.036231;0.4788769;2.148;
637952984451734060;1512.756;7;5;2.5;0.3;1.4;594;4.20875420875421;0.6893654;1.621554;0.7854862;1.675807;-0.6062176;1.15;-0.72215;1.137723;
637952984457425308;1513.317;7;5;2.5;0.3;1.4;561;4.45632798573975;-0.6893655;1.621553;-0.7004378;1.615236;0.6893654;1.621554;0.7854862;1.675807;
637952984475419246;1515.116;7;5;2.5;0.3;1.4;1799;1.38966092273485;0.6062179;1.15;0.5667993;1.135086;-0.6893655;1.621553;-0.7004378;1.615236;
637952984482410780;1515.816;7;5;2.5;0.3;1.4;700;3.57142857142857;-0.4499517;2.036231;-0.3695773;2.030612;0.6062179;1.15;0.5667993;1.135086;
637952984493413189;1516.916;7;5;2.5;0.3;1.4;1100;2.27272727272727;0.2394144;0.8422153;0.1919827;0.9593444;-0.4499517;2.036231;-0.3695773;2.030612;
637952984504405596;1518.015;7;5;1.5;1.1;2;488;3.07377049180328;-0.3420197;0.5603072;-0.2016312;0.9190785;0;2.5;0.059405;2.308323;
637952984509396688;1518.515;7;5;1.5;1.1;2;500;3;0.6427875;2.266045;0.5192495;2.145956;-0.3420197;0.5603072;-0.2016312;0.9190785;
637952984531481527;1520.725;7;5;1.5;1.1;2;2210;0.678733031674208;-0.8660251;0.9999995;-0.9152449;1.144617;0.6427875;2.266045;0.5192495;2.145956;
637952984542483936;1521.824;7;5;1.5;1.1;2;1100;1.36363636363636;0.9848077;1.673648;0.9254863;1.80311;-0.8660251;0.9999995;-0.9152449;1.144617;
637952984548475249;1522.424;7;5;1.5;1.1;2;599;2.50417362270451;-0.9848078;1.673648;-0.8050491;1.559364;0.9848077;1.673648;0.9254863;1.80311;
637952984554476565;1523.024;7;5;1.5;1.1;2;600;2.5;0.8660256;1;0.8458686;1.176254;-0.9848078;1.673648;-0.8050491;1.559364;
637952984560467875;1523.623;7;5;1.5;1.1;2;600;2.5;-0.6427882;2.266044;-0.6603798;2.029987;0.8660256;1;0.8458686;1.176254;
637952984566469191;1524.223;7;5;1.5;1.1;2;599;2.50417362270451;0.3420205;0.5603075;0.3357846;0.8074379;-0.6427882;2.266044;-0.6603798;2.029987;
637952984586463569;1526.222;7;5;3;0.2;1.4;1000;3;-0.2394138;0.8422151;-0.2756773;0.8647746;0;2.2;-0.06150419;2.158755;
637952984608448379;1528.421;7;5;3;0.2;1.4;2199;1.36425648021828;0.4499513;2.036231;0.4109195;1.994044;-0.2394138;0.8422151;-0.2756773;0.8647746;
637952984618670623;1529.451;7;5;3;0.2;1.4;1030;2.9126213592233;-0.6062176;1.15;-0.5266829;1.209278;0.4499513;2.036231;0.4109195;1.994044;
637952984633433348;1530.92;7;5;3;0.2;1.4;1469;2.04220558202859;0.6893654;1.621554;0.6761541;1.629795;-0.6062176;1.15;-0.5266829;1.209278;
637952984644434071;1532.02;7;5;3;0.2;1.4;1099;2.72975432211101;-0.6893655;1.621553;-0.6695985;1.674035;0.6893654;1.621554;0.6761541;1.629795;
637952984653427397;1532.919;7;5;3;0.2;1.4;899;3.33704115684093;0.6062179;1.15;0.5540697;1.151282;-0.6893655;1.621553;-0.6695985;1.674035;
637952984663424595;1533.918;7;5;3;0.2;1.4;1000;3;-0.4499517;2.036231;-0.4519767;1.944277;0.6062179;1.15;0.5540697;1.151282;
637952984671536371;1534.729;7;5;3;0.2;1.4;811;3.69913686806412;0.2394144;0.8422153;0.1905847;0.9216492;-0.4499517;2.036231;-0.4519767;1.944277;
637952984698516673;1537.428;7;5;4.5;0.1;2.2;1699;2.64861683343143;-0.3762217;0.4663379;-0.351595;0.4664614;0;2.6;-0.01255028;2.602073;
637952984743502452;1541.926;7;5;4.5;0.1;2.2;4498;1.00044464206314;0.7070663;2.342649;0.7455079;2.365183;-0.3762217;0.4663379;-0.351595;0.4664614;
637952984787472078;1546.324;7;5;4.5;0.1;2.2;4398;1.02319236016371;-0.9526277;0.9499994;-0.9810644;0.9421903;0.7070663;2.342649;0.7455079;2.365183;
637952984835562611;1551.133;7;5;4.5;0.1;2.2;4809;0.935745477230193;1.083289;1.691013;1.063339;1.681147;-0.9526277;0.9499994;-0.9810644;0.9421903;
637952984855556996;1553.132;7;5;4.5;0.1;2.2;1999;2.25112556278139;-1.083289;1.691012;-1.059934;1.678645;1.083289;1.691013;1.063339;1.681147;
637952984882542905;1555.831;7;5;4.5;0.1;2.2;2699;1.66728417932568;0.9526281;0.9500003;0.9521845;0.9123518;-1.083289;1.691012;-1.059934;1.678645;
637952984901537065;1557.729;7;5;4.5;0.1;2.2;1899;2.3696682464455;-0.7070671;2.342648;-0.7329252;2.338013;0.9526281;0.9500003;0.9521845;0.9123518;
637952984914529909;1559.029;7;5;4.5;0.1;2.2;1300;3.46153846153846;0.3762226;0.4663382;0.3306513;0.4608778;-0.7070671;2.342648;-0.7329252;2.338013;
637952984944516477;1562.028;7;5;3.5;0.2;2;1200;2.91666666666667;-0.3420197;0.5603072;-0.4175092;0.6257758;0;2.5;-0.03043097;2.517764;
637952984957509322;1563.327;7;5;3.5;0.2;2;1299;2.69438029253272;0.6427875;2.266045;0.5652276;2.288374;-0.3420197;0.5603072;-0.4175092;0.6257758;
637952984969511954;1564.527;7;5;3.5;0.2;2;1200;2.91666666666667;-0.8660251;0.9999995;-0.8620116;1.022908;0.6427875;2.266045;0.5652276;2.288374;
637952984986605695;1566.237;7;5;3.5;0.2;2;1710;2.04678362573099;0.9848077;1.673648;0.9240775;1.674279;-0.8660251;0.9999995;-0.8620116;1.022908;
637952985005589857;1568.136;7;5;3.5;0.2;2;1899;1.84307530279094;-0.9848078;1.673648;-0.9989043;1.712421;0.9848077;1.673648;0.9240775;1.674279;
637952985015592047;1569.135;7;5;3.5;0.2;2;1000;3.5;0.8660256;1;0.8585575;0.9278373;-0.9848078;1.673648;-0.9989043;1.712421;
637952985057683975;1573.345;7;5;3.5;0.2;2;4210;0.831353919239905;-0.6427882;2.266044;-0.6623722;2.300653;0.8660256;1;0.8585575;0.9278373;
637952985069675987;1574.544;7;5;3.5;0.2;2;1199;2.91909924937448;0.3420205;0.5603075;0.4145483;0.5325916;-0.6427882;2.266044;-0.6623722;2.300653;
637952985103661779;1577.943;7;5;4;0.1;1.4;1699;2.35432607416127;-0.2394138;0.8422151;-0.2686041;0.8442284;0;2.2;0.0009769723;2.17469;
637952985122658883;1579.842;7;5;4;0.1;1.4;1899;2.10637177461822;0.4499513;2.036231;0.4342129;2.048637;-0.2394138;0.8422151;-0.2686041;0.8442284;
637952985142643265;1581.841;7;5;4;0.1;1.4;1999;2.00100050025012;-0.6062176;1.15;-0.6192634;1.141171;0.4499513;2.036231;0.4342129;2.048637;
637952985168638955;1584.44;7;5;4;0.1;1.4;2599;1.5390534821085;0.6893654;1.621554;0.6994513;1.666506;-0.6062176;1.15;-0.6192634;1.141171;
637952985184952531;1586.079;7;5;4;0.1;1.4;1639;2.4405125076266;-0.6893655;1.621553;-0.6599316;1.66197;0.6893654;1.621554;0.6994513;1.666506;
637952985206717293;1588.249;7;5;4;0.1;1.4;2170;1.84331797235023;0.6062179;1.15;0.5686966;1.138266;-0.6893655;1.621553;-0.6599316;1.66197;
637952985216719488;1589.249;7;5;4;0.1;1.4;1000;4;-0.4499517;2.036231;-0.4502534;1.998196;0.6062179;1.15;0.5686966;1.138266;
637952985231712770;1590.747;7;5;4;0.1;1.4;1499;2.66844563042028;0.2394144;0.8422153;0.2489367;0.8323157;-0.4499517;2.036231;-0.4502534;1.998196;
637952985766924356;1644.267;7;6;4;0.1;1.4;1011;3.95647873392681;-0.2394138;0.8422151;-0.2409041;0.891148;0;2.2;0.01865347;2.183717;
637952985782907856;1645.866;7;6;4;0.1;1.4;1599;2.50156347717323;0.4499513;2.036231;0.4256028;2.049895;-0.2394138;0.8422151;-0.2409041;0.891148;
637952985793900267;1646.966;7;6;4;0.1;1.4;1099;3.63967242948135;-0.6062176;1.15;-0.5902727;1.171122;0.4499513;2.036231;0.4256028;2.049895;
637952985810898511;1648.665;7;6;4;0.1;1.4;1699;2.35432607416127;0.6893654;1.621554;0.6740583;1.667962;-0.6062176;1.15;-0.5902727;1.171122;
637952985826889601;1650.265;7;6;4;0.1;1.4;1599;2.50156347717323;-0.6893655;1.621553;-0.7108422;1.626726;0.6893654;1.621554;0.6740583;1.667962;
637952985843877338;1651.964;7;6;4;0.1;1.4;1699;2.35432607416127;0.6062179;1.15;0.6166639;1.198667;-0.6893655;1.621553;-0.7108422;1.626726;
637952985867872591;1654.363;7;6;4;0.1;1.4;2399;1.66736140058358;-0.4499517;2.036231;-0.423109;2.038826;0.6062179;1.15;0.6166639;1.198667;
637952985875184191;1655.101;7;6;4;0.1;1.4;738;5.42005420054201;0.2394144;0.8422153;0.2814637;0.8414955;-0.4499517;2.036231;-0.423109;2.038826;
637952985889867409;1656.562;7;6;2;0.6;1.8;700;2.85714285714286;-0.3078177;0.6542765;-0.1769517;0.8930829;0;2.4;0.02522283;2.190011;
637952985895878726;1657.163;7;6;2;0.6;1.8;601;3.32778702163062;0.5785087;2.18944;0.5162959;2.090757;-0.3078177;0.6542765;-0.1769517;0.8930829;
637952985900969842;1657.672;7;6;2;0.6;1.8;510;3.92156862745098;-0.7794226;1.05;-0.7403013;1.324126;0.5785087;2.18944;0.5162959;2.090757;
637952985913962686;1658.972;7;6;2;0.6;1.8;1300;1.53846153846154;0.8863269;1.656283;0.8297328;1.695963;-0.7794226;1.05;-0.7403013;1.324126;
637952985920954215;1659.671;7;6;2;0.6;1.8;699;2.86123032904149;-0.8863271;1.656283;-0.625605;1.785549;0.8863269;1.656283;0.8297328;1.695963;
637952985930956411;1660.671;7;6;2;0.6;1.8;1000;2;0.779423;1.05;0.6587523;1.278136;-0.8863271;1.656283;-0.625605;1.785549;
637952985938948161;1661.471;7;6;2;0.6;1.8;800;2.5;-0.5785094;2.18944;-0.523993;2.107639;0.779423;1.05;0.6587523;1.278136;
637952985945189528;1662.101;7;6;2;0.6;1.8;630;3.17460317460317;0.3078185;0.6542768;0.5414099;0.5098021;-0.5785094;2.18944;-0.523993;2.107639;
637952985971935388;1664.769;7;6;3;0.2;1.4;1799;1.66759310728182;-0.2394138;0.8422151;-0.2570716;0.8946732;0;2.2;-0.0376102;2.129585;
637952985987248740;1666.308;7;6;3;0.2;1.4;1539;1.94931773879142;0.4499513;2.036231;0.3625542;2.013331;-0.2394138;0.8422151;-0.2570716;0.8946732;
637952986005922829;1668.168;7;6;3;0.2;1.4;1860;1.61290322580645;-0.6062176;1.15;-0.5498757;1.166201;0.4499513;2.036231;0.3625542;2.013331;
637952986022906551;1669.867;7;6;3;0.2;1.4;1699;1.76574455562095;0.6893654;1.621554;0.6179659;1.648582;-0.6062176;1.15;-0.5498757;1.166201;
637952986037899836;1671.366;7;6;3;0.2;1.4;1499;2.00133422281521;-0.6893655;1.621553;-0.6850671;1.579274;0.6893654;1.621554;0.6179659;1.648582;
637952986046911809;1672.266;7;6;3;0.2;1.4;900;3.33333333333333;0.6062179;1.15;0.5550146;1.209051;-0.6893655;1.621553;-0.6850671;1.579274;
637952986056003800;1673.176;7;6;3;0.2;1.4;910;3.2967032967033;-0.4499517;2.036231;-0.4506631;2.068611;0.6062179;1.15;0.5550146;1.209051;
637952986094992337;1677.074;7;6;3;0.2;1.4;3898;0.769625448948179;0.2394144;0.8422153;0.2127481;0.7993604;-0.4499517;2.036231;-0.4506631;2.068611;
637952986128975304;1680.473;7;6;4.5;0.1;2.2;1400;3.21428571428571;-0.3762217;0.4663379;-0.3633578;0.4540828;0;2.6;-0.01460697;2.570902;
637952986140967933;1681.672;7;6;4.5;0.1;2.2;1199;3.75312760633862;0.7070663;2.342649;0.6678457;2.336449;-0.3762217;0.4663379;-0.3633578;0.4540828;
637952986163959419;1683.971;7;6;4.5;0.1;2.2;2299;1.9573727707699;-0.9526277;0.9499994;-0.9180884;0.9724579;0.7070663;2.342649;0.6678457;2.336449;
637952986186944454;1686.27;7;6;4.5;0.1;2.2;2299;1.9573727707699;1.083289;1.691013;1.08214;1.677395;-0.9526277;0.9499994;-0.9180884;0.9724579;
637952986200047325;1687.581;7;6;4.5;0.1;2.2;1311;3.4324942791762;-1.083289;1.691012;-1.044814;1.72248;1.083289;1.691013;1.08214;1.677395;
637952986216040826;1689.18;7;6;4.5;0.1;2.2;1599;2.81425891181989;0.9526281;0.9500003;0.9714203;0.9854797;-1.083289;1.691012;-1.044814;1.72248;
637952986231034111;1690.679;7;6;4.5;0.1;2.2;1499;3.00200133422282;-0.7070671;2.342648;-0.7093802;2.336357;0.9526281;0.9500003;0.9714203;0.9854797;
637952986246327462;1692.216;7;6;4.5;0.1;2.2;1537;2.92778139232271;0.3762226;0.4663382;0.3546576;0.4364129;-0.7070671;2.342648;-0.7093802;2.336357;
637952986269012430;1694.477;7;6;1.5;1.1;2;1599;0.938086303939963;-0.3420197;0.5603072;-0.3215334;1.072708;0;2.5;0.01383718;2.444717;
637952986276013962;1695.177;7;6;1.5;1.1;2;700;2.14285714285714;0.6427875;2.266045;0.3878554;2.142342;-0.3420197;0.5603072;-0.3215334;1.072708;
637952986281015058;1695.677;7;6;1.5;1.1;2;500;3;-0.8660251;0.9999995;-0.8551918;1.234794;0.6427875;2.266045;0.3878554;2.142342;
637952986286006154;1696.177;7;6;1.5;1.1;2;500;3;0.9848077;1.673648;0.8426732;1.798608;-0.8660251;0.9999995;-0.8551918;1.234794;
637952986290007029;1696.577;7;6;1.5;1.1;2;400;3.75;-0.9848078;1.673648;-0.8758965;1.766013;0.9848077;1.673648;0.8426732;1.798608;
637952986295008122;1697.076;7;6;1.5;1.1;2;500;3;0.8660256;1;0.924972;1.301777;-0.9848078;1.673648;-0.8758965;1.766013;
637952986299999217;1697.576;7;6;1.5;1.1;2;500;3;-0.6427882;2.266044;-0.4937552;1.986506;0.8660256;1;0.924972;1.301777;
637952986305000313;1698.076;7;6;1.5;1.1;2;500;3;0.3420205;0.5603075;0.2510269;0.8614031;-0.6427882;2.266044;-0.4937552;1.986506;
637952986327995350;1700.375;7;6;3.5;0.2;2;1599;2.18886804252658;-0.3420197;0.5603072;-0.3556758;0.582423;0;2.5;-0.08214511;2.476666;
637952986340088002;1701.585;7;6;3.5;0.2;2;1210;2.89256198347107;0.6427875;2.266045;0.5984789;2.301936;-0.3420197;0.5603072;-0.3556758;0.582423;
637952986346469395;1702.23;7;6;3.5;0.2;2;645;5.42635658914729;-0.8660251;0.9999995;-0.9150693;1.072343;0.6427875;2.266045;0.5984789;2.301936;
637952986362082816;1703.784;7;6;3.5;0.2;2;1554;2.25225225225225;0.9848077;1.673648;0.9181333;1.671323;-0.8660251;0.9999995;-0.9150693;1.072343;
637952986392079381;1706.783;7;6;3.5;0.2;2;2999;1.16705568522841;-0.9848078;1.673648;-0.9270184;1.684008;0.9848077;1.673648;0.9181333;1.671323;
637952986400071134;1707.583;7;6;3.5;0.2;2;799;4.38047559449312;0.8660256;1;0.7895371;1.058643;-0.9848078;1.673648;-0.9270184;1.684008;
637952986411053543;1708.682;7;6;3.5;0.2;2;1099;3.18471337579618;-0.6427882;2.266044;-0.6181201;2.213131;0.8660256;1;0.7895371;1.058643;
637952986425056610;1710.081;7;6;3.5;0.2;2;1400;2.5;0.3420205;0.5603075;0.3880677;0.6477327;-0.6427882;2.266044;-0.6181201;2.213131;
637952986448156751;1712.391;7;6;2.5;0.3;1.4;1510;1.65562913907285;-0.2394138;0.8422151;-0.2021307;0.8986393;0;2.2;-0.06616041;2.135698;
637952986457145111;1713.291;7;6;2.5;0.3;1.4;900;2.77777777777778;0.4499513;2.036231;0.3370635;1.999958;-0.2394138;0.8422151;-0.2021307;0.8986393;
637952986467147303;1714.29;7;6;2.5;0.3;1.4;1000;2.5;-0.6062176;1.15;-0.5943149;1.22198;0.4499513;2.036231;0.3370635;1.999958;
637952986479139932;1715.49;7;6;2.5;0.3;1.4;1200;2.08333333333333;0.6893654;1.621554;0.6182722;1.713982;-0.6062176;1.15;-0.5943149;1.22198;
637952986491132557;1716.689;7;6;2.5;0.3;1.4;1199;2.08507089241034;-0.6893655;1.621553;-0.6189224;1.489609;0.6893654;1.621554;0.6182722;1.713982;
637952986504129194;1717.989;7;6;2.5;0.3;1.4;1300;1.92307692307692;0.6062179;1.15;0.5149359;1.209675;-0.6893655;1.621553;-0.6189224;1.489609;
637952986514499394;1719.033;7;6;2.5;0.3;1.4;1044;2.39463601532567;-0.4499517;2.036231;-0.4786833;1.898375;0.6062179;1.15;0.5149359;1.209675;
637952986522354911;1719.818;7;6;2.5;0.3;1.4;786;3.18066157760814;0.2394144;0.8422153;0.3748087;0.8294966;-0.4499517;2.036231;-0.4786833;1.898375;
637952987151373953;1782.714;7;7;2.5;0.3;1.4;800;3.125;-0.2394138;0.8422151;-0.1866327;0.876091;0;2.2;0.01640272;2.150689;
637952987158365484;1783.414;7;7;2.5;0.3;1.4;699;3.57653791130186;0.4499513;2.036231;0.3430245;1.970423;-0.2394138;0.8422151;-0.1866327;0.876091;
637952987162366359;1783.814;7;7;2.5;0.3;1.4;400;6.25;-0.6062176;1.15;-0.5244551;1.16924;0.4499513;2.036231;0.3430245;1.970423;
637952987170358113;1784.614;7;7;2.5;0.3;1.4;800;3.125;0.6893654;1.621554;0.5625562;1.615986;-0.6062176;1.15;-0.5244551;1.16924;
637952987176469446;1785.224;7;7;2.5;0.3;1.4;611;4.09165302782324;-0.6893655;1.621553;-0.7582459;1.566691;0.6893654;1.621554;0.5625562;1.615986;
637952987197454042;1787.323;7;7;2.5;0.3;1.4;2099;1.19104335397808;0.6062179;1.15;0.5450441;1.183301;-0.6893655;1.621553;-0.7582459;1.566691;
637952987208456455;1788.423;7;7;2.5;0.3;1.4;1100;2.27272727272727;-0.4499517;2.036231;-0.4725908;1.951639;0.6062179;1.15;0.5450441;1.183301;
637952987214772984;1789.063;7;7;2.5;0.3;1.4;640;3.90625;0.2394144;0.8422153;0.2088496;0.7169452;-0.4499517;2.036231;-0.4725908;1.951639;
637952987228446092;1790.422;7;7;3.5;0.2;2;860;4.06976744186047;-0.3420197;0.5603072;-0.2539634;0.5621876;0;2.5;0.05794236;2.431703;
637952987241438939;1791.722;7;7;3.5;0.2;2;1299;2.69438029253272;0.6427875;2.266045;0.5661315;2.208361;-0.3420197;0.5603072;-0.2539634;0.5621876;
637952987250430909;1792.621;7;7;3.5;0.2;2;899;3.89321468298109;-0.8660251;0.9999995;-0.8230265;1.067759;0.6427875;2.266045;0.5661315;2.208361;
637952987256428471;1793.22;7;7;3.5;0.2;2;600;5.83333333333333;0.9848077;1.673648;1.033928;1.679091;-0.8660251;0.9999995;-0.8230265;1.067759;
637952987268427817;1794.42;7;7;3.5;0.2;2;1200;2.91666666666667;-0.9848078;1.673648;-0.8894284;1.650351;0.9848077;1.673648;1.033928;1.679091;
637952987284417568;1796.019;7;7;3.5;0.2;2;1599;2.18886804252658;0.8660256;1;0.7863483;1.006416;-0.9848078;1.673648;-0.8894284;1.650351;
637952987296407359;1797.219;7;7;3.5;0.2;2;1199;2.91909924937448;-0.6427882;2.266044;-0.5783737;2.246157;0.8660256;1;0.7863483;1.006416;
637952987304407477;1798.018;7;7;3.5;0.2;2;800;4.375;0.3420205;0.5603075;0.298677;0.5662863;-0.6427882;2.266044;-0.5783737;2.246157;
637952987315516215;1799.129;7;7;1.5;1.1;2;500;3;-0.3420197;0.5603072;-0.1721365;0.737867;0;2.5;-0.02141516;2.310991;
637952987320504473;1799.628;7;7;1.5;1.1;2;500;3;0.6427875;2.266045;0.5034056;2.16614;-0.3420197;0.5603072;-0.1721365;0.737867;
637952987324511960;1800.029;7;7;1.5;1.1;2;401;3.74064837905237;-0.8660251;0.9999995;-0.7647554;1.324795;0.6427875;2.266045;0.5034056;2.16614;
637952987329506874;1800.528;7;7;1.5;1.1;2;500;3;0.9848077;1.673648;0.6262593;1.642791;-0.8660251;0.9999995;-0.7647554;1.324795;
637952987334497019;1801.028;7;7;1.5;1.1;2;499;3.0060120240481;-0.9848078;1.673648;-0.9266758;1.71456;0.9848077;1.673648;0.6262593;1.642791;
637952987339507219;1801.528;7;7;1.5;1.1;2;500;3;0.8660256;1;0.7828172;1.277569;-0.9848078;1.673648;-0.9266758;1.71456;
637952987344496889;1802.027;7;7;1.5;1.1;2;500;3;-0.6427882;2.266044;-0.5798466;2.03394;0.8660256;1;0.7828172;1.277569;
637952987349496545;1802.527;7;7;1.5;1.1;2;500;3;0.3420205;0.5603075;0.4871367;0.7822844;-0.6427882;2.266044;-0.5798466;2.03394;
637952987370487388;1804.626;7;7;2;0.6;1.8;599;3.33889816360601;-0.3078177;0.6542765;-0.2454935;0.8202584;0;2.4;-0.06033377;2.265866;
637952987376486124;1805.226;7;7;2;0.6;1.8;600;3.33333333333333;0.5785087;2.18944;0.5145308;2.246044;-0.3078177;0.6542765;-0.2454935;0.8202584;
637952987381486275;1805.726;7;7;2;0.6;1.8;500;4;-0.7794226;1.05;-0.8097712;1.105988;0.5785087;2.18944;0.5145308;2.246044;
637952987386476192;1806.226;7;7;2;0.6;1.8;499;4.00801603206413;0.8863269;1.656283;0.6988875;1.717979;-0.7794226;1.05;-0.8097712;1.105988;
637952987399745302;1807.56;7;7;2;0.6;1.8;1334;1.49925037481259;-0.8863271;1.656283;-1.100563;1.534568;0.8863269;1.656283;0.6988875;1.717979;
637952987406475875;1808.225;7;7;2;0.6;1.8;665;3.00751879699248;0.779423;1.05;0.6444579;1.174775;-0.8863271;1.656283;-1.100563;1.534568;
637952987412465550;1808.824;7;7;2;0.6;1.8;599;3.33889816360601;-0.5785094;2.18944;-0.5274489;2.044086;0.779423;1.05;0.6444579;1.174775;
637952987418465447;1809.424;7;7;2;0.6;1.8;600;3.33333333333333;0.3078185;0.6542768;0.2229178;0.6605499;-0.5785094;2.18944;-0.5274489;2.044086;
637952987472555681;1814.833;7;7;3;0.2;1.4;1200;2.5;-0.2394138;0.8422151;-0.1984896;0.8991226;0;2.2;-0.06387763;2.164655;
637952987481544734;1815.732;7;7;3;0.2;1.4;900;3.33333333333333;0.4499513;2.036231;0.3906739;1.984959;-0.2394138;0.8422151;-0.1984896;0.8991226;
637952987489540748;1816.532;7;7;3;0.2;1.4;800;3.75;-0.6062176;1.15;-0.5914572;1.122866;0.4499513;2.036231;0.3906739;1.984959;
637952987506534470;1818.231;7;7;3;0.2;1.4;1699;1.76574455562095;0.6893654;1.621554;0.6423986;1.654965;-0.6062176;1.15;-0.5914572;1.122866;
637952987516526656;1819.231;7;7;3;0.2;1.4;1000;3;-0.6893655;1.621553;-0.6722881;1.628521;0.6893654;1.621554;0.6423986;1.654965;
637952987527519065;1820.33;7;7;3;0.2;1.4;1099;2.72975432211101;0.6062179;1.15;0.5688352;1.211007;-0.6893655;1.621553;-0.6722881;1.628521;
637952987536521035;1821.23;7;7;3;0.2;1.4;899;3.33704115684093;-0.4499517;2.036231;-0.3897731;2.008709;0.6062179;1.15;0.5688352;1.211007;
637952987549513881;1822.529;7;7;3;0.2;1.4;1299;2.3094688221709;0.2394144;0.8422153;0.2165145;0.7790983;-0.4499517;2.036231;-0.3897731;2.008709;
637952987610597262;1828.638;7;7;4;0.1;1.4;5109;0.782932080642004;-0.2394138;0.8422151;-0.1944682;0.8502055;0;2.2;-0.007072184;2.175733;
637952987621919740;1829.777;7;7;4;0.1;1.4;1140;3.50877192982456;0.4499513;2.036231;0.4152049;2.013271;-0.2394138;0.8422151;-0.1944682;0.8502055;
637952987635582738;1831.136;7;7;4;0.1;1.4;1359;2.94334069168506;-0.6062176;1.15;-0.6031057;1.109775;0.4499513;2.036231;0.4152049;2.013271;
637952987652896530;1832.875;7;7;4;0.1;1.4;1739;2.30017251293847;0.6893654;1.621554;0.7274107;1.639756;-0.6062176;1.15;-0.6031057;1.109775;
637952987664569083;1834.035;7;7;4;0.1;1.4;1159;3.45125107851596;-0.6893655;1.621553;-0.6483868;1.618632;0.6893654;1.621554;0.7274107;1.639756;
637952987680842647;1835.67;7;7;4;0.1;1.4;1635;2.44648318042813;0.6062179;1.15;0.5586998;1.134443;-0.6893655;1.621553;-0.6483868;1.618632;
637952987760643862;1843.642;7;7;4;0.1;1.4;7973;0.501693214599273;-0.4499517;2.036231;-0.4461346;2.043426;0.6062179;1.15;0.5586998;1.134443;
637952987786626588;1846.241;7;7;4;0.1;1.4;2599;1.5390534821085;0.2394144;0.8422153;0.2480101;0.8113838;-0.4499517;2.036231;-0.4461346;2.043426;
637952987920678570;1859.646;7;7;4.5;0.1;2.2;12406;0.362727712397227;-0.3762217;0.4663379;-0.3670423;0.4380147;0;2.6;0.03010218;2.610306;
637952987940882998;1861.674;7;7;4.5;0.1;2.2;2028;2.2189349112426;0.7070663;2.342649;0.7512045;2.362479;-0.3762217;0.4663379;-0.3670423;0.4380147;
637952987949984990;1862.584;7;7;4.5;0.1;2.2;910;4.94505494505495;-0.9526277;0.9499994;-0.9103293;0.9737365;0.7070663;2.342649;0.7512045;2.362479;
637952987963657986;1863.944;7;7;4.5;0.1;2.2;1360;3.30882352941176;1.083289;1.691013;1.055555;1.698269;-0.9526277;0.9499994;-0.9103293;0.9737365;
637952988006627398;1868.241;7;7;4.5;0.1;2.2;4297;1.04724226204329;-1.083289;1.691012;-1.063737;1.695233;1.083289;1.691013;1.055555;1.698269;
637952988018630027;1869.441;7;7;4.5;0.1;2.2;1200;3.75;0.9526281;0.9500003;0.9609148;0.93863;-1.083289;1.691012;-1.063737;1.695233;
637952988043725525;1871.951;7;7;4.5;0.1;2.2;2510;1.79282868525896;-0.7070671;2.342648;-0.7193699;2.364022;0.9526281;0.9500003;0.9609148;0.93863;
637952988059719026;1873.55;7;7;4.5;0.1;2.2;1599;2.81425891181989;0.3762226;0.4663382;0.3732715;0.5004227;-0.7070671;2.342648;-0.7193699;2.364022;
