637952079307188199;302.8663;8;0;4.5;0.1;2.2;3953;1.13837591702504;-0.3762217;0.4663379;-0.363088;0.4911487;0;2.6;-0.006827347;2.552206;
637952079343587060;306.514;8;0;4.5;0.1;2.2;3648;1.23355263157895;0.7070663;2.342649;0.6886443;2.296171;-0.3762217;0.4663379;-0.363088;0.4911487;
637952079362271616;308.3747;8;0;4.5;0.1;2.2;1861;2.41805480924234;-0.9526277;0.9499994;-0.9481604;0.9831154;0.7070663;2.342649;0.6886443;2.296171;
637952079379255748;310.074;8;0;4.5;0.1;2.2;1699;2.64861683343143;1.083289;1.691013;1.050642;1.655504;-0.9526277;0.9499994;-0.9481604;0.9831154;
637952079402251349;312.3729;8;0;4.5;0.1;2.2;2299;1.9573727707699;-1.083289;1.691012;-1.060018;1.697753;1.083289;1.691013;1.050642;1.655504;
637952079444343449;316.5821;8;0;4.5;0.1;2.2;4209;1.06913756236636;0.9526281;0.9500003;0.9119107;0.9678825;-1.083289;1.691012;-1.060018;1.697753;
637952079460337345;318.1812;8;0;4.5;0.1;2.2;1599;2.81425891181989;-0.7070671;2.342648;-0.695442;2.313937;0.9526281;0.9500003;0.9119107;0.9678825;
637952079478331760;319.9807;8;0;4.5;0.1;2.2;1799;2.50138966092273;0.3762226;0.4663382;0.3642115;0.5125144;-0.7070671;2.342648;-0.695442;2.313937;
637952079522302462;324.3784;8;0;4;0.1;1.4;2960;1.35135135135135;-0.2394138;0.8422151;-0.2150014;0.8449119;0;2.2;0.01188476;2.155699;
637952079540296846;326.1778;8;0;4;0.1;1.4;1799;2.22345747637576;0.4499513;2.036231;0.4307134;1.996971;-0.2394138;0.8422151;-0.2150014;0.8449119;
637952079574285122;329.5763;8;0;4;0.1;1.4;3398;1.17716303708064;-0.6062176;1.15;-0.5699296;1.145649;0.4499513;2.036231;0.4307134;1.996971;
637952079586388069;330.7866;8;0;4;0.1;1.4;1210;3.30578512396694;0.6893654;1.621554;0.6658915;1.608744;-0.6062176;1.15;-0.5699296;1.145649;
637952079602381966;332.3859;8;0;4;0.1;1.4;1599;2.50156347717323;-0.6893655;1.621553;-0.6770504;1.604687;0.6893654;1.621554;0.6658915;1.608744;
637952079619376103;334.0851;8;0;4;0.1;1.4;1699;2.35432607416127;0.6062179;1.15;0.5721499;1.155683;-0.6893655;1.621553;-0.6770504;1.604687;
637952079640361211;336.1841;8;0;4;0.1;1.4;2099;1.90566936636494;-0.4499517;2.036231;-0.4466804;1.997691;0.6062179;1.15;0.5721499;1.155683;
637952079657355353;337.8834;8;0;4;0.1;1.4;1699;2.35432607416127;0.2394144;0.8422153;0.2171227;0.8736681;-0.4499517;2.036231;-0.4466804;1.997691;
637952079686352414;340.7821;8;0;2;0.6;1.8;1599;1.25078173858662;-0.3078177;0.6542765;-0.2105392;0.874388;0;2.4;0.03108422;2.187689;
637952079701336062;342.2812;8;0;2;0.6;1.8;1499;1.33422281521014;0.5785087;2.18944;0.5217969;2.171842;-0.3078177;0.6542765;-0.2105392;0.874388;
637952079711338498;343.2811;8;0;2;0.6;1.8;1000;2;-0.7794226;1.05;-0.7178479;1.266294;0.5785087;2.18944;0.5217969;2.171842;
637952079720440716;344.1916;8;0;2;0.6;1.8;911;2.1953896816685;0.8863269;1.656283;0.8255474;1.576445;-0.7794226;1.05;-0.7178479;1.266294;
637952079732433633;345.391;8;0;2;0.6;1.8;1199;1.66805671392827;-0.8863271;1.656283;-0.6652261;1.604878;0.8863269;1.656283;0.8255474;1.576445;
637952079748427529;346.9902;8;0;2;0.6;1.8;1599;1.25078173858662;0.779423;1.05;0.631908;1.289822;-0.8863271;1.656283;-0.6652261;1.604878;
637952079760424767;348.1896;8;0;2;0.6;1.8;1199;1.66805671392827;-0.5785094;2.18944;-0.4808725;1.973287;0.779423;1.05;0.631908;1.289822;
637952079772417690;349.3892;8;0;2;0.6;1.8;1200;1.66666666666667;0.3078185;0.6542768;0.2871675;0.8350214;-0.5785094;2.18944;-0.4808725;1.973287;
637952079787411336;350.8884;8;0;1.5;1.1;2;699;2.14592274678112;-0.3420197;0.5603072;-0.2423211;1.028623;0;2.5;0.03185975;2.085651;
637952079796413603;351.7881;8;0;1.5;1.1;2;900;1.66666666666667;0.6427875;2.266045;0.4334989;1.912463;-0.3420197;0.5603072;-0.2423211;1.028623;
637952079803401827;352.4877;8;0;1.5;1.1;2;700;2.14285714285714;-0.8660251;0.9999995;-0.8034046;1.405362;0.6427875;2.266045;0.4334989;1.912463;
637952079818393486;353.9871;8;0;1.5;1.1;2;1499;1.00066711140761;0.9848077;1.673648;0.5782856;1.622099;-0.8660251;0.9999995;-0.8034046;1.405362;
637952079825395234;354.6867;8;0;1.5;1.1;2;700;2.14285714285714;-0.9848078;1.673648;-0.4494488;1.65276;0.9848077;1.673648;0.5782856;1.622099;
637952079836391247;355.7862;8;0;1.5;1.1;2;1100;1.36363636363636;0.8660256;1;0.6771488;1.401412;-0.9848078;1.673648;-0.4494488;1.65276;
637952079846383795;356.7858;8;0;1.5;1.1;2;1000;1.5;-0.6427882;2.266044;-0.3437655;1.993999;0.8660256;1;0.6771488;1.401412;
637952079863487966;358.496;8;0;1.5;1.1;2;1710;0.87719298245614;0.3420205;0.5603075;0.267644;1.055438;-0.6427882;2.266044;-0.3437655;1.993999;
637952079889474294;361.0948;8;0;3.5;0.2;2;1299;2.69438029253272;-0.3420197;0.5603072;-0.3003056;0.5718335;0;2.5;0.003745957;2.462122;
637952079900476972;362.1945;8;0;3.5;0.2;2;1100;3.18181818181818;0.6427875;2.266045;0.6309163;2.262593;-0.3420197;0.5603072;-0.3003056;0.5718335;
637952079917461109;363.8936;8;0;3.5;0.2;2;1699;2.06003531489111;-0.8660251;0.9999995;-0.7860429;1.045209;0.6427875;2.266045;0.6309163;2.262593;
637952079931464514;365.2932;8;0;3.5;0.2;2;1400;2.5;0.9848077;1.673648;0.9363473;1.656625;-0.8660251;0.9999995;-0.7860429;1.045209;
637952079950449147;367.192;8;0;3.5;0.2;2;1899;1.84307530279094;-0.9848078;1.673648;-0.8963979;1.627723;0.9848077;1.673648;0.9363473;1.656625;
637952079965442795;368.6915;8;0;3.5;0.2;2;1499;2.33488992661775;0.8660256;1;0.843421;1.008703;-0.9848078;1.673648;-0.8963979;1.627723;
637952079978435956;369.9906;8;0;3.5;0.2;2;1299;2.69438029253272;-0.6427882;2.266044;-0.6518977;2.176733;0.8660256;1;0.843421;1.008703;
637952079989428634;371.0903;8;0;3.5;0.2;2;1100;3.18181818181818;0.3420205;0.5603075;0.3262655;0.6221558;-0.6427882;2.266044;-0.6518977;2.176733;
637952080025527432;374.6997;8;0;3;0.2;1.4;2210;1.35746606334842;-0.2394138;0.8422151;-0.1676743;0.8831694;0;2.2;0.02063643;2.16865;
637952080040521075;376.1991;8;0;3;0.2;1.4;1499;2.00133422281521;0.4499513;2.036231;0.4248345;1.989009;-0.2394138;0.8422151;-0.1676743;0.8831694;
637952080053514239;377.4984;8;0;3;0.2;1.4;1299;2.3094688221709;-0.6062176;1.15;-0.5839604;1.179311;0.4499513;2.036231;0.4248345;1.989009;
637952080061896281;378.3442;8;0;3;0.2;1.4;846;3.54609929078014;0.6893654;1.621554;0.6465738;1.540626;-0.6062176;1.15;-0.5839604;1.179311;
637952080085502031;380.6971;8;0;3;0.2;1.4;2353;1.27496812579686;-0.6893655;1.621553;-0.6494092;1.610368;0.6893654;1.621554;0.6465738;1.540626;
637952080096504709;381.7965;8;0;3;0.2;1.4;1099;2.72975432211101;0.6062179;1.15;0.5778695;1.124589;-0.6893655;1.621553;-0.6494092;1.610368;
637952080107747446;382.928;8;0;3;0.2;1.4;1132;2.65017667844523;-0.4499517;2.036231;-0.3945075;1.954356;0.6062179;1.15;0.5778695;1.124589;
637952080127485955;384.8949;8;0;3;0.2;1.4;1967;1.52516522623284;0.2394144;0.8422153;0.2190451;0.879892;-0.4499517;2.036231;-0.3945075;1.954356;
637952080154467775;387.5937;8;0;2.5;0.3;1.4;1299;1.92455735180908;-0.2394138;0.8422151;-0.1987004;0.9478233;0;2.2;0.03451695;2.119884;
637952080168567427;389.0042;8;0;2.5;0.3;1.4;1410;1.77304964539007;0.4499513;2.036231;0.4427599;1.991292;-0.2394138;0.8422151;-0.1987004;0.9478233;
637952080181550589;390.3034;8;0;2.5;0.3;1.4;1299;1.92455735180908;-0.6062176;1.15;-0.5525063;1.215339;0.4499513;2.036231;0.4427599;1.991292;
637952080206537714;392.8022;8;0;2.5;0.3;1.4;2499;1.00040016006403;0.6893654;1.621554;0.5941237;1.649224;-0.6062176;1.15;-0.5525063;1.215339;
637952080218538646;394.0017;8;0;2.5;0.3;1.4;1199;2.08507089241034;-0.6893655;1.621553;-0.5603483;1.60482;0.6893654;1.621554;0.5941237;1.649224;
637952080232532054;395.4011;8;0;2.5;0.3;1.4;1399;1.78699070764832;0.6062179;1.15;0.5111506;1.225714;-0.6893655;1.621553;-0.5603483;1.60482;
637952080244524975;396.6005;8;0;2.5;0.3;1.4;1199;2.08507089241034;-0.4499517;2.036231;-0.3880332;1.974677;0.6062179;1.15;0.5111506;1.225714;
637952080257519248;397.9001;8;0;2.5;0.3;1.4;1300;1.92307692307692;0.2394144;0.8422153;0.2246646;0.9714676;-0.4499517;2.036231;-0.3880332;1.974677;
637952081801418201;552.2849;8;1;2.5;0.3;1.4;1600;1.5625;-0.2394138;0.8422151;-0.2335585;0.8436985;0;2.2;0.0269221;2.102034;
637952081814401356;553.5835;8;1;2.5;0.3;1.4;1299;1.92455735180908;0.4499513;2.036231;0.3910795;2.046647;-0.2394138;0.8422151;-0.2335585;0.8436985;
637952081821403061;554.284;8;1;2.5;0.3;1.4;701;3.56633380884451;-0.6062176;1.15;-0.5986989;1.147736;0.4499513;2.036231;0.3910795;2.046647;
637952081847379387;556.8819;8;1;2.5;0.3;1.4;2598;0.962278675904542;0.6893654;1.621554;0.6129456;1.619812;-0.6062176;1.15;-0.5986989;1.147736;
637952081859382313;558.0814;8;1;2.5;0.3;1.4;1200;2.08333333333333;-0.6893655;1.621553;-0.5899293;1.609246;0.6893654;1.621554;0.6129456;1.619812;
637952081869484772;559.092;8;1;2.5;0.3;1.4;1011;2.47279920870425;0.6062179;1.15;0.5264652;1.183331;-0.6893655;1.621553;-0.5899293;1.609246;
637952081876876569;559.8381;8;1;2.5;0.3;1.4;746;3.35120643431635;-0.4499517;2.036231;-0.3518245;1.92704;0.6062179;1.15;0.5264652;1.183331;
637952081885478669;560.6913;8;1;2.5;0.3;1.4;853;2.93083235638921;0.2394144;0.8422153;0.2741595;0.9187174;-0.4499517;2.036231;-0.3518245;1.92704;
637952081898843918;562.0351;8;1;2;0.6;1.8;544;3.67647058823529;-0.3078177;0.6542765;-0.2133344;0.9385434;0;2.4;0.0534421;2.23681;
637952081907476023;562.8906;8;1;2;0.6;1.8;855;2.33918128654971;0.5785087;2.18944;0.5391634;2.167052;-0.3078177;0.6542765;-0.2133344;0.9385434;
637952081917468456;563.8898;8;1;2;0.6;1.8;999;2.002002002002;-0.7794226;1.05;-0.6837391;1.229783;0.5785087;2.18944;0.5391634;2.167052;
637952081927460889;564.8893;8;1;2;0.6;1.8;999;2.002002002002;0.8863269;1.656283;0.7592121;1.555982;-0.7794226;1.05;-0.6837391;1.229783;
637952081933564744;565.5001;8;1;2;0.6;1.8;611;3.27332242225859;-0.8863271;1.656283;-0.6160852;1.605544;0.8863269;1.656283;0.7592121;1.555982;
637952081941570868;566.2999;8;1;2;0.6;1.8;800;2.5;0.779423;1.05;0.7544226;1.125161;-0.8863271;1.656283;-0.6160852;1.605544;
637952081951565273;567.2994;8;1;2;0.6;1.8;999;2.002002002002;-0.5785094;2.18944;-0.5022777;1.976621;0.779423;1.05;0.7544226;1.125161;
637952081960566762;568.199;8;1;2;0.6;1.8;900;2.22222222222222;0.3078185;0.6542768;0.3135832;0.8405571;-0.5785094;2.18944;-0.5022777;1.976621;
637952081988533609;570.9976;8;1;4;0.1;1.4;1299;3.07929176289453;-0.2394138;0.8422151;-0.2512322;0.8584815;0;2.2;0.02423428;2.212647;
637952082011519208;573.2966;8;1;4;0.1;1.4;2299;1.73988690735102;0.4499513;2.036231;0.435798;2.004315;-0.2394138;0.8422151;-0.2512322;0.8584815;
637952082020741452;574.2258;8;1;4;0.1;1.4;929;4.30570505920344;-0.6062176;1.15;-0.5864295;1.194661;0.4499513;2.036231;0.435798;2.004315;
637952082034504815;575.5955;8;1;4;0.1;1.4;1370;2.91970802919708;0.6893654;1.621554;0.6435586;1.616829;-0.6062176;1.15;-0.5864295;1.194661;
637952082045507481;576.6949;8;1;4;0.1;1.4;1099;3.63967242948135;-0.6893655;1.621553;-0.730001;1.628653;0.6893654;1.621554;0.6435586;1.616829;
637952082058500646;577.9944;8;1;4;0.1;1.4;1299;3.07929176289453;0.6062179;1.15;0.6182219;1.152485;-0.6893655;1.621553;-0.730001;1.628653;
637952082080596029;580.2045;8;1;4;0.1;1.4;2210;1.80995475113122;-0.4499517;2.036231;-0.4566463;2.011542;0.6062179;1.15;0.6182219;1.152485;
637952082095589673;581.7039;8;1;4;0.1;1.4;1499;2.66844563042028;0.2394144;0.8422153;0.2017545;0.8744525;-0.4499517;2.036231;-0.4566463;2.011542;
637952082127577468;584.9025;8;1;3;0.2;1.4;1400;2.14285714285714;-0.2394138;0.8422151;-0.1983895;0.9102116;0;2.2;0.032944;2.134235;
637952082139570395;586.1017;8;1;3;0.2;1.4;1199;2.50208507089241;0.4499513;2.036231;0.4336497;1.990603;-0.2394138;0.8422151;-0.1983895;0.9102116;
637952082148572580;587.0013;8;1;3;0.2;1.4;900;3.33333333333333;-0.6062176;1.15;-0.5504589;1.17816;0.4499513;2.036231;0.4336497;1.990603;
637952082158565015;588.0007;8;1;3;0.2;1.4;999;3.003003003003;0.6893654;1.621554;0.7075454;1.606491;-0.6062176;1.15;-0.5504589;1.17816;
637952082177559640;589.9;8;1;3;0.2;1.4;1899;1.57977883096367;-0.6893655;1.621553;-0.6076084;1.618935;0.6893654;1.621554;0.7075454;1.606491;
637952082190552803;591.1994;8;1;3;0.2;1.4;1299;2.3094688221709;0.6062179;1.15;0.5561231;1.206589;-0.6893655;1.621553;-0.6076084;1.618935;
637952082202545725;592.3989;8;1;3;0.2;1.4;1199;2.50208507089241;-0.4499517;2.036231;-0.4974526;1.981257;0.6062179;1.15;0.5561231;1.206589;
637952082214538649;593.5983;8;1;3;0.2;1.4;1200;2.5;0.2394144;0.8422153;0.2392142;0.8586788;-0.4499517;2.036231;-0.4974526;1.981257;
637952082242525459;596.3969;8;1;1.5;1.1;2;1199;1.25104253544621;-0.3420197;0.5603072;-0.2397216;0.9521992;0;2.5;0.07432067;2.017227;
637952082250637435;597.2078;8;1;1.5;1.1;2;811;1.84956843403206;0.6427875;2.266045;0.3958534;1.847094;-0.3420197;0.5603072;-0.2397216;0.9521992;
637952082257629139;597.9074;8;1;1.5;1.1;2;700;2.14285714285714;-0.8660251;0.9999995;-0.7701714;1.364005;0.6427875;2.266045;0.3958534;1.847094;
637952082267628725;598.9069;8;1;1.5;1.1;2;1000;1.5;0.9848077;1.673648;0.5589976;1.592383;-0.8660251;0.9999995;-0.7701714;1.364005;
637952082278628262;600.0064;8;1;1.5;1.1;2;1100;1.36363636363636;-0.9848078;1.673648;-0.5231331;1.643021;0.9848077;1.673648;0.5589976;1.592383;
637952082290621184;601.2059;8;1;1.5;1.1;2;1200;1.25;0.8660256;1;0.5570922;1.310205;-0.9848078;1.673648;-0.5231331;1.643021;
637952082305614834;602.7051;8;1;1.5;1.1;2;1499;1.00066711140761;-0.6427882;2.266044;-0.3445713;1.950216;0.8660256;1;0.5570922;1.310205;
637952082316601499;603.8047;8;1;1.5;1.1;2;1100;1.36363636363636;0.3420205;0.5603075;0.2139468;1.070359;-0.6427882;2.266044;-0.3445713;1.950216;
637952082338709442;606.015;8;1;3.5;0.2;2;1100;3.18181818181818;-0.3420197;0.5603072;-0.2932886;0.6311345;0;2.5;-0.01125972;2.463344;
637952082357704068;607.9138;8;1;3.5;0.2;2;1899;1.84307530279094;0.6427875;2.266045;0.5947484;2.187884;-0.3420197;0.5603072;-0.2932886;0.6311345;
637952082369686981;609.1132;8;1;3.5;0.2;2;1199;2.91909924937448;-0.8660251;0.9999995;-0.8037388;1.057558;0.6427875;2.266045;0.5947484;2.187884;
637952082387681366;610.9123;8;1;3.5;0.2;2;1799;1.94552529182879;0.9848077;1.673648;0.8932864;1.63343;-0.8660251;0.9999995;-0.8037388;1.057558;
637952082407676237;612.9115;8;1;3.5;0.2;2;1999;1.75087543771886;-0.9848078;1.673648;-0.9145692;1.646671;0.9848077;1.673648;0.8932864;1.63343;
637952082415668186;613.7112;8;1;3.5;0.2;2;800;4.375;0.8660256;1;0.8029265;1.00997;-0.9848078;1.673648;-0.9145692;1.646671;
637952082431662079;615.3104;8;1;3.5;0.2;2;1599;2.18886804252658;-0.6427882;2.266044;-0.6320133;2.187662;0.8660256;1;0.8029265;1.00997;
637952082443665000;616.5099;8;1;3.5;0.2;2;1199;2.91909924937448;0.3420205;0.5603075;0.323864;0.611524;-0.6427882;2.266044;-0.6320133;2.187662;
637952082475652789;619.7084;8;1;4.5;0.1;2.2;1999;2.25112556278139;-0.3762217;0.4663379;-0.3484793;0.5077323;0;2.6;0.003280856;2.588248;
637952082493747205;621.5186;8;1;4.5;0.1;2.2;1810;2.48618784530387;0.7070663;2.342649;0.6743245;2.312255;-0.3762217;0.4663379;-0.3484793;0.5077323;
637952082503739632;622.5182;8;1;4.5;0.1;2.2;1000;4.5;-0.9526277;0.9499994;-0.9454455;0.9929253;0.7070663;2.342649;0.6743245;2.312255;
637952082522744257;624.4177;8;1;4.5;0.1;2.2;1899;2.3696682464455;1.083289;1.691013;1.037998;1.691178;-0.9526277;0.9499994;-0.9454455;0.9929253;
637952082544739615;626.6169;8;1;4.5;0.1;2.2;2199;2.04638472032742;-1.083289;1.691012;-1.043323;1.66106;1.083289;1.691013;1.037998;1.691178;
637952082565714722;628.7151;8;1;4.5;0.1;2.2;2098;2.14489990467112;0.9526281;0.9500003;0.9129849;0.9718452;-1.083289;1.691012;-1.043323;1.66106;
637952082584709348;630.6146;8;1;4.5;0.1;2.2;1899;2.3696682464455;-0.7070671;2.342648;-0.6899937;2.305232;0.9526281;0.9500003;0.9129849;0.9718452;
637952082608698437;633.0134;8;1;4.5;0.1;2.2;2399;1.87578157565652;0.3762226;0.4663382;0.3670827;0.5075909;-0.7070671;2.342648;-0.6899937;2.305232;
637952083285950956;700.7373;8;2;3.5;0.2;2;2698;1.29725722757598;-0.3420197;0.5603072;-0.3048484;0.6278534;0;2.5;0.03451981;2.548099;
637952083312047325;703.3475;8;2;3.5;0.2;2;2610;1.34099616858238;0.6427875;2.266045;0.6242349;2.206017;-0.3420197;0.5603072;-0.3048484;0.6278534;
637952083325045542;704.6468;8;2;3.5;0.2;2;1299;2.69438029253272;-0.8660251;0.9999995;-0.8306933;1.086369;0.6427875;2.266045;0.6242349;2.206017;
637952083341038504;706.246;8;2;3.5;0.2;2;1599;2.18886804252658;0.9848077;1.673648;0.9411047;1.659767;-0.8660251;0.9999995;-0.8306933;1.086369;
637952083354031668;707.5454;8;2;3.5;0.2;2;1299;2.69438029253272;-0.9848078;1.673648;-0.9416925;1.663725;0.9848077;1.673648;0.9411047;1.659767;
637952083372024489;709.3445;8;2;3.5;0.2;2;1799;1.94552529182879;0.8660256;1;0.8074278;1.034561;-0.9848078;1.673648;-0.9416925;1.663725;
637952083387019991;710.8438;8;2;3.5;0.2;2;1499;2.33488992661775;-0.6427882;2.266044;-0.6060538;2.305181;0.8660256;1;0.8074278;1.034561;
637952083404006903;712.543;8;2;3.5;0.2;2;1699;2.06003531489111;0.3420205;0.5603075;0.3954673;0.4757996;-0.6427882;2.266044;-0.6060538;2.305181;
637952083431113510;715.2529;8;2;4.5;0.1;2.2;1510;2.98013245033113;-0.3762217;0.4663379;-0.3859931;0.5050203;0;2.6;0.00149424;2.587893;
637952083497079576;721.8502;8;2;4.5;0.1;2.2;6597;0.682128240109141;0.7070663;2.342649;0.6961869;2.323132;-0.3762217;0.4663379;-0.3859931;0.5050203;
637952083513073467;723.4494;8;2;4.5;0.1;2.2;1599;2.81425891181989;-0.9526277;0.9499994;-0.9517282;0.9868503;0.7070663;2.342649;0.6961869;2.323132;
637952083538059553;725.9481;8;2;4.5;0.1;2.2;2499;1.80072028811525;1.083289;1.691013;1.08631;1.670437;-0.9526277;0.9499994;-0.9517282;0.9868503;
637952083606146137;732.756;8;2;4.5;0.1;2.2;6808;0.660987074030552;-1.083289;1.691012;-1.076044;1.689761;1.083289;1.691013;1.08631;1.670437;
637952083622130020;734.3552;8;2;4.5;0.1;2.2;1599;2.81425891181989;0.9526281;0.9500003;0.9283251;0.9853742;-1.083289;1.691012;-1.076044;1.689761;
637952083670116787;739.1528;8;2;4.5;0.1;2.2;4798;0.937890787828262;-0.7070671;2.342648;-0.6966377;2.31731;0.9526281;0.9500003;0.9283251;0.9853742;
637952083688107196;740.9521;8;2;4.5;0.1;2.2;1799;2.50138966092273;0.3762226;0.4663382;0.398171;0.4805994;-0.7070671;2.342648;-0.6966377;2.31731;
637952083741192939;746.2609;8;2;4;0.1;1.4;3410;1.17302052785924;-0.2394138;0.8422151;-0.2133896;0.8359824;0;2.2;0.01054266;2.18232;
637952083808170172;752.958;8;2;4;0.1;1.4;6697;0.597282365238166;0.4499513;2.036231;0.4576298;2.014347;-0.2394138;0.8422151;-0.2133896;0.8359824;
637952083821163333;754.257;8;2;4;0.1;1.4;1299;3.07929176289453;-0.6062176;1.15;-0.627368;1.172724;0.4499513;2.036231;0.4576298;2.014347;
637952083837537317;755.903;8;2;4;0.1;1.4;1646;2.43013365735115;0.6893654;1.621554;0.6439304;1.607426;-0.6062176;1.15;-0.627368;1.172724;
637952083856141853;757.7554;8;2;4;0.1;1.4;1852;2.15982721382289;-0.6893655;1.621553;-0.6608875;1.620152;0.6893654;1.621554;0.6439304;1.607426;
637952083869135015;759.0548;8;2;4;0.1;1.4;1299;3.07929176289453;0.6062179;1.15;0.6156706;1.164225;-0.6893655;1.621553;-0.6608875;1.620152;
637952083882128182;760.3544;8;2;4;0.1;1.4;1300;3.07692307692308;-0.4499517;2.036231;-0.4431347;2.037033;0.6062179;1.15;0.6156706;1.164225;
637952083931220135;765.2631;8;2;4;0.1;1.4;4909;0.814829904257486;0.2394144;0.8422153;0.2432088;0.867648;-0.4499517;2.036231;-0.4431347;2.037033;
637952083960207997;768.1617;8;2;1.5;1.1;2;1799;0.833796553640912;-0.3420197;0.5603072;-0.1387939;1.024217;0;2.5;0.1059842;1.970176;
637952083971200674;769.2611;8;2;1.5;1.1;2;1099;1.36487716105551;0.6427875;2.266045;0.5319182;1.837175;-0.3420197;0.5603072;-0.1387939;1.024217;
637952083979192624;770.0608;8;2;1.5;1.1;2;800;1.875;-0.8660251;0.9999995;-0.6070291;1.405493;0.6427875;2.266045;0.5319182;1.837175;
637952084034174681;775.5582;8;2;1.5;1.1;2;5497;0.272876114244133;0.9848077;1.673648;0.5339778;1.666163;-0.8660251;0.9999995;-0.6070291;1.405493;
637952084048274823;776.9689;8;2;1.5;1.1;2;1411;1.06307583274274;-0.9848078;1.673648;-0.5012261;1.744173;0.9848077;1.673648;0.5339778;1.666163;
637952084062264929;778.368;8;2;1.5;1.1;2;1399;1.07219442458899;0.8660256;1;0.7570274;1.396558;-0.9848078;1.673648;-0.5012261;1.744173;
637952084076268357;779.7673;8;2;1.5;1.1;2;1399;1.07219442458899;-0.6427882;2.266044;-0.3263696;1.980783;0.8660256;1;0.7570274;1.396558;
637952084090261763;781.1667;8;2;1.5;1.1;2;1399;1.07219442458899;0.3420205;0.5603075;0.1945747;0.9370596;-0.6427882;2.266044;-0.3263696;1.980783;
637952084117358361;783.8766;8;2;2.5;0.3;1.4;1211;2.06440957886045;-0.2394138;0.8422151;-0.2507028;0.8572378;0;2.2;0.01146047;2.177355;
637952084130351525;785.176;8;2;2.5;0.3;1.4;1299;1.92455735180908;0.4499513;2.036231;0.4451414;1.958939;-0.2394138;0.8422151;-0.2507028;0.8572378;
637952084161339071;788.2747;8;2;2.5;0.3;1.4;3099;0.806711842529848;-0.6062176;1.15;-0.4741495;1.210249;0.4499513;2.036231;0.4451414;1.958939;
637952084178333211;789.9739;8;2;2.5;0.3;1.4;1699;1.47145379635079;0.6893654;1.621554;0.6087363;1.632408;-0.6062176;1.15;-0.4741495;1.210249;
637952084192326617;791.373;8;2;2.5;0.3;1.4;1399;1.78699070764832;-0.6893655;1.621553;-0.570572;1.616756;0.6893654;1.621554;0.6087363;1.632408;
637952084204319540;792.5727;8;2;2.5;0.3;1.4;1200;2.08333333333333;0.6062179;1.15;0.5442644;1.195677;-0.6893655;1.621553;-0.570572;1.616756;
637952084214311965;793.5721;8;2;2.5;0.3;1.4;1000;2.5;-0.4499517;2.036231;-0.4378835;2.002541;0.6062179;1.15;0.5442644;1.195677;
637952084232306356;795.3713;8;2;2.5;0.3;1.4;1799;1.38966092273485;0.2394144;0.8422153;0.1868209;0.9406039;-0.4499517;2.036231;-0.4378835;2.002541;
637952084268405144;798.9806;8;2;2;0.6;1.8;1910;1.04712041884817;-0.3078177;0.6542765;-0.3119943;0.8455441;0;2.4;0.029131;2.322471;
637952084281398308;800.2802;8;2;2;0.6;1.8;1300;1.53846153846154;0.5785087;2.18944;0.4680216;1.99115;-0.3078177;0.6542765;-0.3119943;0.8455441;
637952084293391224;801.4796;8;2;2;0.6;1.8;1199;1.66805671392827;-0.7794226;1.05;-0.6477959;1.213343;0.5785087;2.18944;0.4680216;1.99115;
637952084306384392;802.779;8;2;2;0.6;1.8;1299;1.53964588144727;0.8863269;1.656283;0.7694451;1.576949;-0.7794226;1.05;-0.6477959;1.213343;
637952084317377069;803.8783;8;2;2;0.6;1.8;1099;1.81983621474067;-0.8863271;1.656283;-0.6986969;1.540715;0.8863269;1.656283;0.7694451;1.576949;
637952084343373401;806.4773;8;2;2;0.6;1.8;2599;0.769526741054252;0.779423;1.05;0.5421547;1.170096;-0.8863271;1.656283;-0.6986969;1.540715;
637952084357473276;807.8877;8;2;2;0.6;1.8;1410;1.41843971631206;-0.5785094;2.18944;-0.4477852;2.005949;0.779423;1.05;0.5421547;1.170096;
637952084368467845;808.9871;8;2;2;0.6;1.8;1099;1.81983621474067;0.3078185;0.6542768;0.1862592;0.8542026;-0.5785094;2.18944;-0.4477852;2.005949;
637952084390569642;811.1973;8;2;3;0.2;1.4;1111;2.7002700270027;-0.2394138;0.8422151;-0.1737425;0.8275393;0;2.2;-0.0007562768;2.133394;
637952084402457995;812.3856;8;2;3;0.2;1.4;1188;2.52525252525253;0.4499513;2.036231;0.3830931;2.026691;-0.2394138;0.8422151;-0.1737425;0.8275393;
637952084410447404;813.1852;8;2;3;0.2;1.4;800;3.75;-0.6062176;1.15;-0.5563062;1.188919;0.4499513;2.036231;0.3830931;2.026691;
637952084433441542;815.4844;8;2;3;0.2;1.4;2299;1.30491518051327;0.6893654;1.621554;0.6314339;1.613467;-0.6062176;1.15;-0.5563062;1.188919;
637952084448430851;816.9834;8;2;3;0.2;1.4;1499;2.00133422281521;-0.6893655;1.621553;-0.6365647;1.57271;0.6893654;1.621554;0.6314339;1.613467;
637952084463421211;818.4827;8;2;3;0.2;1.4;1499;2.00133422281521;0.6062179;1.15;0.5860006;1.183732;-0.6893655;1.621553;-0.6365647;1.57271;
637952084477429637;819.8826;8;2;3;0.2;1.4;1400;2.14285714285714;-0.4499517;2.036231;-0.5214206;2.007799;0.6062179;1.15;0.5860006;1.183732;
637952084494412105;821.5813;8;2;3;0.2;1.4;1699;1.76574455562095;0.2394144;0.8422153;0.2094427;0.8949472;-0.4499517;2.036231;-0.5214206;2.007799;
637952085252966791;897.4352;8;3;2;0.6;1.8;1300;1.53846153846154;-0.3078177;0.6542765;-0.3092363;0.8495153;0;2.4;-0.01451818;2.195853;
637952085274954051;899.634;8;3;2;0.6;1.8;2199;0.909504320145521;0.5785087;2.18944;0.4708493;2.035378;-0.3078177;0.6542765;-0.3092363;0.8495153;
637952085289943917;901.1334;8;3;2;0.6;1.8;1499;1.33422281521014;-0.7794226;1.05;-0.9207838;1.123576;0.5785087;2.18944;0.4708493;2.035378;
637952085303940176;902.5327;8;3;2;0.6;1.8;1399;1.42959256611866;0.8863269;1.656283;0.8233746;1.767721;-0.7794226;1.05;-0.9207838;1.123576;
637952085327035801;904.8427;8;3;2;0.6;1.8;2310;0.865800865800866;-0.8863271;1.656283;-0.8826261;1.62846;0.8863269;1.656283;0.8233746;1.767721;
637952085343029698;906.442;8;3;2;0.6;1.8;1599;1.25078173858662;0.779423;1.05;0.7249233;1.26339;-0.8863271;1.656283;-0.8826261;1.62846;
637952085357023103;907.8412;8;3;2;0.6;1.8;1399;1.42959256611866;-0.5785094;2.18944;-0.6227377;2.0013;0.779423;1.05;0.7249233;1.26339;
637952085370026269;909.1407;8;3;2;0.6;1.8;1299;1.53964588144727;0.3078185;0.6542768;0.2106944;0.8533335;-0.5785094;2.18944;-0.6227377;2.0013;
637952085398003078;911.9393;8;3;3;0.2;1.4;1499;2.00133422281521;-0.2394138;0.8422151;-0.2214403;0.8668138;0;2.2;-0.008349694;2.196652;
637952085412006493;913.3388;8;3;3;0.2;1.4;1400;2.14285714285714;0.4499513;2.036231;0.4445258;2.031888;-0.2394138;0.8422151;-0.2214403;0.8668138;
637952085422999170;914.4383;8;3;3;0.2;1.4;1099;2.72975432211101;-0.6062176;1.15;-0.5593339;1.147431;0.4499513;2.036231;0.4445258;2.031888;
637952085436992577;915.8375;8;3;3;0.2;1.4;1399;2.14438884917798;0.6893654;1.621554;0.6368371;1.573317;-0.6062176;1.15;-0.5593339;1.147431;
637952085449985742;917.137;8;3;3;0.2;1.4;1299;2.3094688221709;-0.6893655;1.621553;-0.6424376;1.635021;0.6893654;1.621554;0.6368371;1.573317;
637952085462978905;918.4366;8;3;3;0.2;1.4;1300;2.30769230769231;0.6062179;1.15;0.561561;1.190778;-0.6893655;1.621553;-0.6424376;1.635021;
637952085474081613;919.5469;8;3;3;0.2;1.4;1110;2.7027027027027;-0.4499517;2.036231;-0.4558944;2.025125;0.6062179;1.15;0.561561;1.190778;
637952085488085018;920.9465;8;3;3;0.2;1.4;1400;2.14285714285714;0.2394144;0.8422153;0.2243963;0.9113376;-0.4499517;2.036231;-0.4558944;2.025125;
637952085514071346;923.545;8;3;2.5;0.3;1.4;1299;1.92455735180908;-0.2394138;0.8422151;-0.1502618;0.8512298;0;2.2;0.01295915;2.123083;
637952085525064025;924.6447;8;3;2.5;0.3;1.4;1100;2.27272727272727;0.4499513;2.036231;0.4438759;1.959761;-0.2394138;0.8422151;-0.1502618;0.8512298;
637952085537056945;925.844;8;3;2.5;0.3;1.4;1199;2.08507089241034;-0.6062176;1.15;-0.5494557;1.241475;0.4499513;2.036231;0.4438759;1.959761;
637952085548049630;926.9435;8;3;2.5;0.3;1.4;1099;2.27479526842584;0.6893654;1.621554;0.6937277;1.631342;-0.6062176;1.15;-0.5494557;1.241475;
637952085560052552;928.1431;8;3;2.5;0.3;1.4;1200;2.08333333333333;-0.6893655;1.621553;-0.6395432;1.600598;0.6893654;1.621554;0.6937277;1.631342;
637952085573040367;929.4424;8;3;2.5;0.3;1.4;1299;1.92455735180908;0.6062179;1.15;0.590788;1.244737;-0.6893655;1.621553;-0.6395432;1.600598;
637952085581040780;930.242;8;3;2.5;0.3;1.4;800;3.125;-0.4499517;2.036231;-0.4401697;2.02502;0.6062179;1.15;0.590788;1.244737;
637952085593031068;931.4415;8;3;2.5;0.3;1.4;1199;2.08507089241034;0.2394144;0.8422153;0.2435438;0.8976681;-0.4499517;2.036231;-0.4401697;2.02502;
637952085619127425;934.0512;8;3;3.5;0.2;2;1399;2.50178699070765;-0.3420197;0.5603072;-0.324811;0.6294442;0;2.5;0.04026392;2.428505;
637952085640121554;936.1505;8;3;3.5;0.2;2;2099;1.66746069556932;0.6427875;2.266045;0.5995702;2.180605;-0.3420197;0.5603072;-0.324811;0.6294442;
637952085653122526;937.45;8;3;3.5;0.2;2;1299;2.69438029253272;-0.8660251;0.9999995;-0.8568106;1.01284;0.6427875;2.266045;0.5995702;2.180605;
637952085686107098;940.7483;8;3;3.5;0.2;2;3298;1.06124924196483;0.9848077;1.673648;0.9699786;1.683202;-0.8660251;0.9999995;-0.8568106;1.01284;
637952085701210273;942.2587;8;3;3.5;0.2;2;1510;2.31788079470199;-0.9848078;1.673648;-0.9335309;1.62758;0.9848077;1.673648;0.9699786;1.683202;
637952085715203692;943.6581;8;3;3.5;0.2;2;1399;2.50178699070765;0.8660256;1;0.8297864;1.043638;-0.9848078;1.673648;-0.9335309;1.62758;
637952085726196367;944.7574;8;3;3.5;0.2;2;1099;3.18471337579618;-0.6427882;2.266044;-0.61333;2.317238;0.8660256;1;0.8297864;1.043638;
637952085739189529;946.0569;8;3;3.5;0.2;2;1300;2.69230769230769;0.3420205;0.5603075;0.316109;0.5578208;-0.6427882;2.266044;-0.61333;2.317238;
637952085791172186;951.2546;8;3;4.5;0.1;2.2;2099;2.14387803716055;-0.3762217;0.4663379;-0.350247;0.4988979;0;2.6;-0.00157688;2.556757;
637952085809156565;953.0536;8;3;4.5;0.1;2.2;1799;2.50138966092273;0.7070663;2.342649;0.6965043;2.314002;-0.3762217;0.4663379;-0.350247;0.4988979;
637952085842254628;956.3634;8;3;4.5;0.1;2.2;3310;1.3595166163142;-0.9526277;0.9499994;-0.9097995;0.9673709;0.7070663;2.342649;0.6965043;2.314002;
637952085863249738;958.4623;8;3;4.5;0.1;2.2;2099;2.14387803716055;1.083289;1.691013;1.037944;1.681121;-0.9526277;0.9499994;-0.9097995;0.9673709;
637952085882234361;960.3613;8;3;4.5;0.1;2.2;1899;2.3696682464455;-1.083289;1.691012;-1.073283;1.689055;1.083289;1.691013;1.037944;1.681121;
637952085900228746;962.1605;8;3;4.5;0.1;2.2;1799;2.50138966092273;0.9526281;0.9500003;0.9423859;0.9493576;-1.083289;1.691012;-1.073283;1.689055;
637952085921223857;964.2596;8;3;4.5;0.1;2.2;2099;2.14387803716055;-0.7070671;2.342648;-0.7154843;2.315146;0.9526281;0.9500003;0.9423859;0.9493576;
637952085940318507;966.1697;8;3;4.5;0.1;2.2;1910;2.35602094240838;0.3762226;0.4663382;0.3427941;0.5035249;-0.7070671;2.342648;-0.7154843;2.315146;
637952085974306782;969.5684;8;3;4;0.1;1.4;1500;2.66666666666667;-0.2394138;0.8422151;-0.2427487;0.8650922;0;2.2;-0.004074011;2.173389;
637952085989294625;971.0674;8;3;4;0.1;1.4;1499;2.66844563042028;0.4499513;2.036231;0.4262315;2.04167;-0.2394138;0.8422151;-0.2427487;0.8650922;
637952086004293276;972.5668;8;3;4;0.1;1.4;1499;2.66844563042028;-0.6062176;1.15;-0.641681;1.129007;0.4499513;2.036231;0.4262315;2.04167;
637952086015285954;973.6663;8;3;4;0.1;1.4;1099;3.63967242948135;0.6893654;1.621554;0.6763122;1.613866;-0.6062176;1.15;-0.641681;1.129007;
637952086038281555;975.9651;8;3;4;0.1;1.4;2299;1.73988690735102;-0.6893655;1.621553;-0.6540601;1.608662;0.6893654;1.621554;0.6763122;1.613866;
637952086049275391;977.0649;8;3;4;0.1;1.4;1100;3.63636363636364;0.6062179;1.15;0.592537;1.19783;-0.6893655;1.621553;-0.6540601;1.608662;
637952086061268343;978.2643;8;3;4;0.1;1.4;1199;3.33611342785655;-0.4499517;2.036231;-0.43878;2.020422;0.6062179;1.15;0.592537;1.19783;
637952086076379797;979.775;8;3;4;0.1;1.4;1511;2.64725347452019;0.2394144;0.8422153;0.2503252;0.852311;-0.4499517;2.036231;-0.43878;2.020422;
637952086090363196;981.1742;8;3;1.5;1.1;2;600;2.5;-0.3420197;0.5603072;-0.156937;1.064207;0;2.5;0.07951345;2.377516;
637952086096364658;981.7737;8;3;1.5;1.1;2;599;2.50417362270451;0.6427875;2.266045;0.4878451;1.820531;-0.3420197;0.5603072;-0.156937;1.064207;
637952086104356600;982.5732;8;3;1.5;1.1;2;800;1.875;-0.8660251;0.9999995;-0.7659568;1.286028;0.6427875;2.266045;0.4878451;1.820531;
637952086113358798;983.4728;8;3;1.5;1.1;2;900;1.66666666666667;0.9848077;1.673648;0.7179796;1.75765;-0.8660251;0.9999995;-0.7659568;1.286028;
637952086119350250;984.0726;8;3;1.5;1.1;2;600;2.5;-0.9848078;1.673648;-0.470776;1.752585;0.9848077;1.673648;0.7179796;1.75765;
637952086126351961;984.7722;8;3;1.5;1.1;2;699;2.14592274678112;0.8660256;1;0.3683708;1.188976;-0.9848078;1.673648;-0.470776;1.752585;
637952086134453928;985.583;8;3;1.5;1.1;2;811;1.84956843403206;-0.6427882;2.266044;-0.3286781;1.884492;0.8660256;1;0.3683708;1.188976;
637952086140455395;986.1826;8;3;1.5;1.1;2;600;2.5;0.3420205;0.5603075;0.3380192;1.105699;-0.6427882;2.266044;-0.3286781;1.884492;
637952087343916051;1106.527;8;4;3.5;0.2;2;1257;2.78440731901352;-0.3420197;0.5603072;-0.3391061;0.6120322;0;2.5;0.04962195;2.414302;
637952087356029006;1107.738;8;4;3.5;0.2;2;1211;2.89017341040462;0.6427875;2.266045;0.6334457;2.16656;-0.3420197;0.5603072;-0.3391061;0.6120322;
637952087366021439;1108.737;8;4;3.5;0.2;2;999;3.5035035035035;-0.8660251;0.9999995;-0.8532845;1.040767;0.6427875;2.266045;0.6334457;2.16656;
637952087384015823;1110.536;8;4;3.5;0.2;2;1799;1.94552529182879;0.9848077;1.673648;0.9535057;1.669867;-0.8660251;0.9999995;-0.8532845;1.040767;
637952087395008498;1111.635;8;4;3.5;0.2;2;1099;3.18471337579618;-0.9848078;1.673648;-0.9036492;1.637905;0.9848077;1.673648;0.9535057;1.669867;
637952087406001175;1112.735;8;4;3.5;0.2;2;1099;3.18471337579618;0.8660256;1;0.8433499;1.026525;-0.9848078;1.673648;-0.9036492;1.637905;
637952087413993124;1113.535;8;4;3.5;0.2;2;800;4.375;-0.6427882;2.266044;-0.6905342;2.181419;0.8660256;1;0.8433499;1.026525;
637952087433987990;1115.534;8;4;3.5;0.2;2;1999;1.75087543771886;0.3420205;0.5603075;0.2935813;0.6139444;-0.6427882;2.266044;-0.6905342;2.181419;
637952087475968214;1119.732;8;4;4.5;0.1;2.2;2499;1.80072028811525;-0.3762217;0.4663379;-0.3516916;0.5001044;0;2.6;-0.006814156;2.55795;
637952087489961620;1121.131;8;4;4.5;0.1;2.2;1399;3.21658327376698;0.7070663;2.342649;0.68432;2.323385;-0.3762217;0.4663379;-0.3516916;0.5001044;
637952087513067247;1123.441;8;4;4.5;0.1;2.2;2310;1.94805194805195;-0.9526277;0.9499994;-0.9584669;0.9247801;0.7070663;2.342649;0.68432;2.323385;
637952087528060892;1124.94;8;4;4.5;0.1;2.2;1499;3.00200133422282;1.083289;1.691013;1.056178;1.664338;-0.9526277;0.9499994;-0.9584669;0.9247801;
637952087565039905;1128.639;8;4;4.5;0.1;2.2;3698;1.21687398593835;-1.083289;1.691012;-1.068131;1.6608;1.083289;1.691013;1.056178;1.664338;
637952087579033315;1130.038;8;4;4.5;0.1;2.2;1399;3.21658327376698;0.9526281;0.9500003;0.979057;0.9921858;-1.083289;1.691012;-1.068131;1.6608;
637952087596026778;1131.737;8;4;4.5;0.1;2.2;1699;2.64861683343143;-0.7070671;2.342648;-0.6955611;2.310164;0.9526281;0.9500003;0.979057;0.9921858;
637952087609019947;1133.037;8;4;4.5;0.1;2.2;1299;3.46420323325635;0.3762226;0.4663382;0.3468279;0.4769042;-0.7070671;2.342648;-0.6955611;2.310164;
637952087635007869;1135.636;8;4;4;0.1;1.4;1200;3.33333333333333;-0.2394138;0.8422151;-0.1975974;0.8303027;0;2.2;0.004787251;2.180322;
637952087654113409;1137.546;8;4;4;0.1;1.4;1910;2.09424083769634;0.4499513;2.036231;0.4267925;2.00298;-0.2394138;0.8422151;-0.1975974;0.8303027;
637952087666106689;1138.745;8;4;4;0.1;1.4;1199;3.33611342785655;-0.6062176;1.15;-0.5841541;1.165474;0.4499513;2.036231;0.4267925;2.00298;
637952087679101972;1140.045;8;4;4;0.1;1.4;1299;3.07929176289453;0.6893654;1.621554;0.6728866;1.591961;-0.6062176;1.15;-0.5841541;1.165474;
637952087723084029;1144.443;8;4;4;0.1;1.4;4398;0.909504320145521;-0.6893655;1.621553;-0.6905748;1.604028;0.6893654;1.621554;0.6728866;1.591961;
637952087743068899;1146.442;8;4;4;0.1;1.4;1999;2.00100050025012;0.6062179;1.15;0.5821713;1.167792;-0.6893655;1.621553;-0.6905748;1.604028;
637952087754071578;1147.541;8;4;4;0.1;1.4;1099;3.63967242948135;-0.4499517;2.036231;-0.4634096;2.025966;0.6062179;1.15;0.5821713;1.167792;
637952087769065226;1149.041;8;4;4;0.1;1.4;1500;2.66666666666667;0.2394144;0.8422153;0.2053196;0.8179283;-0.4499517;2.036231;-0.4634096;2.025966;
637952087796161825;1151.75;8;4;2.5;0.3;1.4;1699;1.47145379635079;-0.2394138;0.8422151;-0.190008;0.9745309;0;2.2;0.04968609;2.081799;
637952087805154010;1152.65;8;4;2.5;0.3;1.4;900;2.77777777777778;0.4499513;2.036231;0.5838827;2.002169;-0.2394138;0.8422151;-0.190008;0.9745309;
637952087816156694;1153.75;8;4;2.5;0.3;1.4;1100;2.27272727272727;-0.6062176;1.15;-0.5805479;1.223027;0.4499513;2.036231;0.5838827;2.002169;
637952087825148883;1154.649;8;4;2.5;0.3;1.4;899;2.78086763070078;0.6893654;1.621554;0.5803272;1.606621;-0.6062176;1.15;-0.5805479;1.223027;
637952087849244747;1157.059;8;4;2.5;0.3;1.4;2410;1.03734439834025;-0.6893655;1.621553;-0.5963358;1.549205;0.6893654;1.621554;0.5803272;1.606621;
637952087863238153;1158.458;8;4;2.5;0.3;1.4;1400;1.78571428571429;0.6062179;1.15;0.5545831;1.192596;-0.6893655;1.621553;-0.5963358;1.549205;
637952087876241326;1159.758;8;4;2.5;0.3;1.4;1299;1.92455735180908;-0.4499517;2.036231;-0.4138345;1.932869;0.6062179;1.15;0.5545831;1.192596;
637952087887234004;1160.857;8;4;2.5;0.3;1.4;1099;2.27479526842584;0.2394144;0.8422153;0.1567885;0.9260888;-0.4499517;2.036231;-0.4138345;1.932869;
637952087913560415;1163.498;8;4;3;0.2;1.4;1241;2.4174053182917;-0.2394138;0.8422151;-0.1708082;0.9144818;0;2.2;-0.0261782;2.231518;
637952087938606513;1166.002;8;4;3;0.2;1.4;2504;1.19808306709265;0.4499513;2.036231;0.4179461;1.943039;-0.2394138;0.8422151;-0.1708082;0.9144818;
637952087952309851;1167.365;8;4;3;0.2;1.4;1363;2.20102714600147;-0.6062176;1.15;-0.5449181;1.171036;0.4499513;2.036231;0.4179461;1.943039;
637952087960311798;1168.165;8;4;3;0.2;1.4;800;3.75;0.6893654;1.621554;0.6257207;1.608292;-0.6062176;1.15;-0.5449181;1.171036;
637952087980518145;1170.193;8;4;3;0.2;1.4;2028;1.4792899408284;-0.6893655;1.621553;-0.5953408;1.589123;0.6893654;1.621554;0.6257207;1.608292;
637952087993301261;1171.464;8;4;3;0.2;1.4;1270;2.36220472440945;0.6062179;1.15;0.5913498;1.18756;-0.6893655;1.621553;-0.5953408;1.589123;
637952088005284173;1172.663;8;4;3;0.2;1.4;1199;2.50208507089241;-0.4499517;2.036231;-0.446154;2.011939;0.6062179;1.15;0.5913498;1.18756;
637952088023281848;1174.462;8;4;3;0.2;1.4;1799;1.66759310728182;0.2394144;0.8422153;0.230197;0.9268208;-0.4499517;2.036231;-0.446154;2.011939;
637952088039384690;1176.072;8;4;1.5;1.1;2;611;2.45499181669394;-0.3420197;0.5603072;-0.1761267;0.9886072;0;2.5;0.01084303;2.096344;
637952088047384506;1176.872;8;4;1.5;1.1;2;800;1.875;0.6427875;2.266045;0.590868;1.938227;-0.3420197;0.5603072;-0.1761267;0.9886072;
637952088054374568;1177.572;8;4;1.5;1.1;2;700;2.14285714285714;-0.8660251;0.9999995;-0.7756903;1.196014;0.6427875;2.266045;0.590868;1.938227;
637952088069374683;1179.071;8;4;1.5;1.1;2;1499;1.00066711140761;0.9848077;1.673648;0.564787;1.707522;-0.8660251;0.9999995;-0.7756903;1.196014;
637952088083365037;1180.47;8;4;1.5;1.1;2;1399;1.07219442458899;-0.9848078;1.673648;-0.5544951;1.656987;0.9848077;1.673648;0.564787;1.707522;
637952088091367887;1181.27;8;4;1.5;1.1;2;799;1.87734668335419;0.8660256;1;0.5325252;1.307021;-0.9848078;1.673648;-0.5544951;1.656987;
637952088109352267;1183.069;8;4;1.5;1.1;2;1799;0.833796553640912;-0.6427882;2.266044;-0.3842457;2.010149;0.8660256;1;0.5325252;1.307021;
637952088121345183;1184.268;8;4;1.5;1.1;2;1199;1.25104253544621;0.3420205;0.5603075;0.2150155;0.9405411;-0.6427882;2.266044;-0.3842457;2.010149;
637952088151332490;1187.267;8;4;2;0.6;1.8;1999;1.00050025012506;-0.3078177;0.6542765;-0.3291062;0.7736683;0;2.4;0.02540681;2.207334;
637952088161324927;1188.267;8;4;2;0.6;1.8;1000;2;0.5785087;2.18944;0.4336274;2.153893;-0.3078177;0.6542765;-0.3291062;0.7736683;
637952088171327359;1189.266;8;4;2;0.6;1.8;1000;2;-0.7794226;1.05;-0.6241786;1.157591;0.5785087;2.18944;0.4336274;2.153893;
637952088181439824;1190.277;8;4;2;0.6;1.8;1011;1.9782393669634;0.8863269;1.656283;0.7718114;1.618608;-0.7794226;1.05;-0.6241786;1.157591;
637952088190432012;1191.176;8;4;2;0.6;1.8;899;2.22469410456062;-0.8863271;1.656283;-0.983497;1.763876;0.8863269;1.656283;0.7718114;1.618608;
637952088197423715;1191.876;8;4;2;0.6;1.8;700;2.85714285714286;0.779423;1.05;0.5517232;0.9894801;-0.8863271;1.656283;-0.983497;1.763876;
637952088206425907;1192.776;8;4;2;0.6;1.8;900;2.22222222222222;-0.5785094;2.18944;-0.5210513;2.143519;0.779423;1.05;0.5517232;0.9894801;
637952088216418339;1193.775;8;4;2;0.6;1.8;999;2.002002002002;0.3078185;0.6542768;0.3497117;0.8668704;-0.5785094;2.18944;-0.5210513;2.143519;
637952088729633496;1245.096;8;5;4.5;0.1;2.2;1199;3.75312760633862;-0.3762217;0.4663379;-0.3646643;0.4725294;0;2.6;0.01520119;2.603001;
637952088742626660;1246.395;8;5;4.5;0.1;2.2;1299;3.46420323325635;0.7070663;2.342649;0.6938559;2.3597;-0.3762217;0.4663379;-0.3646643;0.4725294;
637952088756730101;1247.806;8;5;4.5;0.1;2.2;1411;3.18922749822821;-0.9526277;0.9499994;-0.9269416;0.9547572;0.7070663;2.342649;0.6938559;2.3597;
637952088768723011;1249.005;8;5;4.5;0.1;2.2;1199;3.75312760633862;1.083289;1.691013;1.053504;1.729113;-0.9526277;0.9499994;-0.9269416;0.9547572;
637952088778725452;1250.005;8;5;4.5;0.1;2.2;1000;4.5;-1.083289;1.691012;-1.042387;1.681604;1.083289;1.691013;1.053504;1.729113;
637952088791718614;1251.304;8;5;4.5;0.1;2.2;1299;3.46420323325635;0.9526281;0.9500003;0.9445278;0.9795432;-1.083289;1.691012;-1.042387;1.681604;
637952088801711051;1252.304;8;5;4.5;0.1;2.2;1000;4.5;-0.7070671;2.342648;-0.7280368;2.298293;0.9526281;0.9500003;0.9445278;0.9795432;
637952088845691759;1256.701;8;5;4.5;0.1;2.2;4398;1.02319236016371;0.3762226;0.4663382;0.3712904;0.4663802;-0.7070671;2.342648;-0.7280368;2.298293;
637952088872678330;1259.4;8;5;3.5;0.2;2;1299;2.69438029253272;-0.3420197;0.5603072;-0.3254302;0.5914723;0;2.5;-0.03242186;2.433764;
637952088883679896;1260.5;8;5;3.5;0.2;2;1100;3.18181818181818;0.6427875;2.266045;0.6704403;2.269003;-0.3420197;0.5603072;-0.3254302;0.5914723;
637952088893679996;1261.499;8;5;3.5;0.2;2;999;3.5035035035035;-0.8660251;0.9999995;-0.8902399;1.061224;0.6427875;2.266045;0.6704403;2.269003;
637952088911776773;1263.31;8;5;3.5;0.2;2;1810;1.93370165745856;0.9848077;1.673648;0.9447355;1.649;-0.8660251;0.9999995;-0.8902399;1.061224;
637952088922127487;1264.353;8;5;3.5;0.2;2;1043;3.35570469798658;-0.9848078;1.673648;-0.9002818;1.620228;0.9848077;1.673648;0.9447355;1.649;
637952088933764364;1265.509;8;5;3.5;0.2;2;1156;3.02768166089965;0.8660256;1;0.8683343;1.011664;-0.9848078;1.673648;-0.9002818;1.620228;
637952088941996366;1266.339;8;5;3.5;0.2;2;831;4.21179302045728;-0.6427882;2.266044;-0.6257073;2.167616;0.8660256;1;0.8683343;1.011664;
637952088953759230;1267.508;8;5;3.5;0.2;2;1168;2.99657534246575;0.3420205;0.5603075;0.324185;0.5387769;-0.6427882;2.266044;-0.6257073;2.167616;
637952088985737019;1270.706;8;5;3;0.2;1.4;1399;2.14438884917798;-0.2394138;0.8422151;-0.2147345;0.8770356;0;2.2;0.01063094;2.127517;
637952088998740182;1272.006;8;5;3;0.2;1.4;1300;2.30769230769231;0.4499513;2.036231;0.4027265;2.03849;-0.2394138;0.8422151;-0.2147345;0.8770356;
637952089009732859;1273.105;8;5;3;0.2;1.4;1099;2.72975432211101;-0.6062176;1.15;-0.5114829;1.168645;0.4499513;2.036231;0.4027265;2.03849;
637952089019725292;1274.104;8;5;3;0.2;1.4;999;3.003003003003;0.6893654;1.621554;0.6660107;1.603362;-0.6062176;1.15;-0.5114829;1.168645;
637952089027717239;1274.904;8;5;3;0.2;1.4;800;3.75;-0.6893655;1.621553;-0.717433;1.620101;0.6893654;1.621554;0.6660107;1.603362;
637952089035719181;1275.704;8;5;3;0.2;1.4;800;3.75;0.6062179;1.15;0.5332096;1.151342;-0.6893655;1.621553;-0.717433;1.620101;
637952089053823596;1277.514;8;5;3;0.2;1.4;1810;1.65745856353591;-0.4499517;2.036231;-0.3856293;2.017772;0.6062179;1.15;0.5332096;1.151342;
637952089075808955;1279.713;8;5;3;0.2;1.4;2199;1.36425648021828;0.2394144;0.8422153;0.2247884;0.922797;-0.4499517;2.036231;-0.3856293;2.017772;
637952089099804793;1282.112;8;5;2;0.6;1.8;1299;1.53964588144727;-0.3078177;0.6542765;-0.2420343;0.8341589;0;2.4;0.02885236;2.239055;
637952089109797223;1283.112;8;5;2;0.6;1.8;1000;2;0.5785087;2.18944;0.5089793;2.21134;-0.3078177;0.6542765;-0.2420343;0.8341589;
637952089119789661;1284.111;8;5;2;0.6;1.8;999;2.002002002002;-0.7794226;1.05;-0.6500829;1.092073;0.5785087;2.18944;0.5089793;2.21134;
637952089127791609;1284.911;8;5;2;0.6;1.8;800;2.5;0.8863269;1.656283;0.7131928;1.627249;-0.7794226;1.05;-0.6500829;1.092073;
637952089153777937;1287.509;8;5;2;0.6;1.8;2599;0.769526741054252;-0.8863271;1.656283;-0.6847498;1.573983;0.8863269;1.656283;0.7131928;1.627249;
637952089164770614;1288.609;8;5;2;0.6;1.8;1100;1.81818181818182;0.779423;1.05;0.7456101;1.211797;-0.8863271;1.656283;-0.6847498;1.573983;
637952089196758403;1291.808;8;5;2;0.6;1.8;3199;0.625195373554236;-0.5785094;2.18944;-0.4755022;2.037066;0.779423;1.05;0.7456101;1.211797;
637952089210857892;1293.218;8;5;2;0.6;1.8;1410;1.41843971631206;0.3078185;0.6542768;0.2641714;0.8149966;-0.5785094;2.18944;-0.4755022;2.037066;
637952089235852776;1295.717;8;5;2.5;0.3;1.4;1199;2.08507089241034;-0.2394138;0.8422151;-0.1865883;0.8793519;0;2.2;0.01856665;2.106366;
637952089245845210;1296.716;8;5;2.5;0.3;1.4;999;2.5025025025025;0.4499513;2.036231;0.5332127;2.055816;-0.2394138;0.8422151;-0.1865883;0.8793519;
637952089261836848;1298.315;8;5;2.5;0.3;1.4;1599;1.56347717323327;-0.6062176;1.15;-0.4945143;1.18765;0.4499513;2.036231;0.5332127;2.055816;
637952089272831658;1299.415;8;5;2.5;0.3;1.4;1100;2.27272727272727;0.6893654;1.621554;0.6603457;1.554175;-0.6062176;1.15;-0.4945143;1.18765;
637952089285948792;1300.726;8;5;2.5;0.3;1.4;1310;1.90839694656489;-0.6893655;1.621553;-0.6466737;1.61863;0.6893654;1.621554;0.6603457;1.554175;
637952089296931463;1301.825;8;5;2.5;0.3;1.4;1099;2.27479526842584;0.6062179;1.15;0.5249045;1.149643;-0.6893655;1.621553;-0.6466737;1.61863;
637952089319927066;1304.124;8;5;2.5;0.3;1.4;2299;1.08742931709439;-0.4499517;2.036231;-0.4121217;1.929755;0.6062179;1.15;0.5249045;1.149643;
637952089333920477;1305.523;8;5;2.5;0.3;1.4;1399;1.78699070764832;0.2394144;0.8422153;0.1784202;0.8070115;-0.4499517;2.036231;-0.4121217;1.929755;
637952089356906075;1307.822;8;5;4;0.1;1.4;999;4.004004004004;-0.2394138;0.8422151;-0.2132779;0.8138806;0;2.2;-0.04542976;2.182807;
637952089377010967;1309.833;8;5;4;0.1;1.4;2010;1.99004975124378;0.4499513;2.036231;0.4290985;2.015792;-0.2394138;0.8422151;-0.2132779;0.8138806;
637952089389003895;1311.032;8;5;4;0.1;1.4;1199;3.33611342785655;-0.6062176;1.15;-0.6211296;1.118619;0.4499513;2.036231;0.4290985;2.015792;
637952089408998758;1313.031;8;5;4;0.1;1.4;1999;2.00100050025012;0.6893654;1.621554;0.6503395;1.615771;-0.6062176;1.15;-0.6211296;1.118619;
637952089426993141;1314.83;8;5;4;0.1;1.4;1799;2.22345747637576;-0.6893655;1.621553;-0.6615164;1.637029;0.6893654;1.621554;0.6503395;1.615771;
637952089449978737;1317.129;8;5;4;0.1;1.4;2299;1.73988690735102;0.6062179;1.15;0.5773903;1.175874;-0.6893655;1.621553;-0.6615164;1.637029;
637952089461971664;1318.328;8;5;4;0.1;1.4;1199;3.33611342785655;-0.4499517;2.036231;-0.458521;2.017861;0.6062179;1.15;0.5773903;1.175874;
637952089478965796;1320.028;8;5;4;0.1;1.4;1699;2.35432607416127;0.2394144;0.8422153;0.2080057;0.8730289;-0.4499517;2.036231;-0.458521;2.017861;
637952089503951885;1322.527;8;5;1.5;1.1;2;1499;1.00066711140761;-0.3420197;0.5603072;-0.1673761;1.041582;0;2.5;0.04041449;2.061216;
637952089515064584;1323.637;8;5;1.5;1.1;2;1110;1.35135135135135;0.6427875;2.266045;0.5181934;1.94611;-0.3420197;0.5603072;-0.1673761;1.041582;
637952089529057994;1325.036;8;5;1.5;1.1;2;1399;1.07219442458899;-0.8660251;0.9999995;-0.5242348;1.35057;0.6427875;2.266045;0.5181934;1.94611;
637952089540050671;1326.136;8;5;1.5;1.1;2;1100;1.36363636363636;0.9848077;1.673648;0.5346003;1.608424;-0.8660251;0.9999995;-0.5242348;1.35057;
637952089561035774;1328.235;8;5;1.5;1.1;2;2099;0.714626012386851;-0.9848078;1.673648;-0.5292684;1.62004;0.9848077;1.673648;0.5346003;1.608424;
637952089571038218;1329.234;8;5;1.5;1.1;2;1000;1.5;0.8660256;1;0.5824756;1.320913;-0.9848078;1.673648;-0.5292684;1.62004;
637952089582030913;1330.334;8;5;1.5;1.1;2;1099;1.36487716105551;-0.6427882;2.266044;-0.4252609;2.008564;0.8660256;1;0.5824756;1.320913;
637952089591023170;1331.234;8;5;1.5;1.1;2;900;1.66666666666667;0.3420205;0.5603075;0.3741574;1.105069;-0.6427882;2.266044;-0.4252609;2.008564;
637952090404342163;1412.563;8;6;3;0.2;1.4;2371;1.26528890763391;-0.2394138;0.8422151;-0.2200713;0.9250273;0;2.2;-0.01829172;2.104758;
637952090427337763;1414.861;8;6;3;0.2;1.4;2299;1.30491518051327;0.4499513;2.036231;0.4251377;2.007993;-0.2394138;0.8422151;-0.2200713;0.9250273;
637952090443381672;1416.466;8;6;3;0.2;1.4;1604;1.87032418952618;-0.6062176;1.15;-0.5625258;1.200204;0.4499513;2.036231;0.4251377;2.007993;
637952090459315550;1418.06;8;6;3;0.2;1.4;1594;1.88205771643664;0.6893654;1.621554;0.5987927;1.631427;-0.6062176;1.15;-0.5625258;1.200204;
637952090472428747;1419.37;8;6;3;0.2;1.4;1311;2.2883295194508;-0.6893655;1.621553;-0.7385129;1.669826;0.6893654;1.621554;0.5987927;1.631427;
637952090486422150;1420.77;8;6;3;0.2;1.4;1399;2.14438884917798;0.6062179;1.15;0.6014379;1.177855;-0.6893655;1.621553;-0.7385129;1.669826;
637952090499415316;1422.069;8;6;3;0.2;1.4;1300;2.30769230769231;-0.4499517;2.036231;-0.4886869;1.998076;0.6062179;1.15;0.6014379;1.177855;
637952090513388714;1423.469;8;6;3;0.2;1.4;1399;2.14438884917798;0.2394144;0.8422153;0.1784428;0.8768065;-0.4499517;2.036231;-0.4886869;1.998076;
637952090542375777;1426.367;8;6;3.5;0.2;2;1499;2.33488992661775;-0.3420197;0.5603072;-0.3545688;0.6187731;0;2.5;-0.01864099;2.494836;
637952090556369178;1427.767;8;6;3.5;0.2;2;1400;2.5;0.6427875;2.266045;0.6080958;2.214977;-0.3420197;0.5603072;-0.3545688;0.6187731;
637952090587366732;1430.865;8;6;3.5;0.2;2;3099;1.12939657954179;-0.8660251;0.9999995;-0.8295093;1.059636;0.6427875;2.266045;0.6080958;2.214977;
637952090602360382;1432.365;8;6;3.5;0.2;2;1499;2.33488992661775;0.9848077;1.673648;0.9287929;1.635244;-0.8660251;0.9999995;-0.8295093;1.059636;
637952090619454548;1434.075;8;6;3.5;0.2;2;1710;2.04678362573099;-0.9848078;1.673648;-0.9626102;1.650178;0.9848077;1.673648;0.9287929;1.635244;
637952090634448190;1435.574;8;6;3.5;0.2;2;1499;2.33488992661775;0.8660256;1;0.8596393;1.060429;-0.9848078;1.673648;-0.9626102;1.650178;
637952090649441857;1437.073;8;6;3.5;0.2;2;1499;2.33488992661775;-0.6427882;2.266044;-0.5939441;2.219669;0.8660256;1;0.8596393;1.060429;
637952090665439161;1438.673;8;6;3.5;0.2;2;1599;2.18886804252658;0.3420205;0.5603075;0.3281868;0.641784;-0.6427882;2.266044;-0.5939441;2.219669;
637952090703413112;1442.471;8;6;2.5;0.3;1.4;1399;1.78699070764832;-0.2394138;0.8422151;-0.2562611;0.948401;0;2.2;-0.0115618;2.075917;
637952090718746836;1444.011;8;6;2.5;0.3;1.4;1540;1.62337662337662;0.4499513;2.036231;0.3921405;1.902161;-0.2394138;0.8422151;-0.2562611;0.948401;
637952090731408150;1445.27;8;6;2.5;0.3;1.4;1258;1.9872813990461;-0.6062176;1.15;-0.61182;1.14822;0.4499513;2.036231;0.3921405;1.902161;
637952090745511591;1446.68;8;6;2.5;0.3;1.4;1410;1.77304964539007;0.6893654;1.621554;0.7380643;1.700948;-0.6062176;1.15;-0.61182;1.14822;
637952090757504512;1447.88;8;6;2.5;0.3;1.4;1200;2.08333333333333;-0.6893655;1.621553;-0.7354663;1.639757;0.6893654;1.621554;0.7380643;1.700948;
637952090775498893;1449.679;8;6;2.5;0.3;1.4;1799;1.38966092273485;0.6062179;1.15;0.5227197;1.246446;-0.6893655;1.621553;-0.7354663;1.639757;
637952090798484491;1451.977;8;6;2.5;0.3;1.4;2299;1.08742931709439;-0.4499517;2.036231;-0.3754815;1.922923;0.6062179;1.15;0.5227197;1.246446;
637952090813488145;1453.477;8;6;2.5;0.3;1.4;1500;1.66666666666667;0.2394144;0.8422153;0.2250592;0.918558;-0.4499517;2.036231;-0.3754815;1.922923;
637952090835583525;1455.687;8;6;2;0.6;1.8;1011;1.9782393669634;-0.3078177;0.6542765;-0.3068931;0.9356512;0;2.4;0.04843134;2.171169;
637952090845465931;1456.676;8;6;2;0.6;1.8;989;2.02224469160768;0.5785087;2.18944;0.4962862;2.008066;-0.3078177;0.6542765;-0.3068931;0.9356512;
637952090860459583;1458.175;8;6;2;0.6;1.8;1499;1.33422281521014;-0.7794226;1.05;-0.6157831;1.226167;0.5785087;2.18944;0.4962862;2.008066;
637952090873452747;1459.474;8;6;2;0.6;1.8;1299;1.53964588144727;0.8863269;1.656283;0.6425853;1.576925;-0.7794226;1.05;-0.6157831;1.226167;
637952090884445420;1460.573;8;6;2;0.6;1.8;1099;1.81983621474067;-0.8863271;1.656283;-0.6597252;1.583585;0.8863269;1.656283;0.6425853;1.576925;
637952090894447860;1461.573;8;6;2;0.6;1.8;1000;2;0.779423;1.05;0.6465251;1.278146;-0.8863271;1.656283;-0.6597252;1.583585;
637952090905440537;1462.673;8;6;2;0.6;1.8;1099;1.81983621474067;-0.5785094;2.18944;-0.5757738;2.00871;0.779423;1.05;0.6465251;1.278146;
637952090915553000;1463.683;8;6;2;0.6;1.8;1011;1.9782393669634;0.3078185;0.6542768;0.1873291;0.9149297;-0.5785094;2.18944;-0.5757738;2.00871;
637952090941539327;1466.282;8;6;4;0.1;1.4;1399;2.85918513223731;-0.2394138;0.8422151;-0.248438;0.874246;0;2.2;0.01902939;2.172501;
637952090953532248;1467.481;8;6;4;0.1;1.4;1199;3.33611342785655;0.4499513;2.036231;0.4715146;2.055163;-0.2394138;0.8422151;-0.248438;0.874246;
637952090964524925;1468.581;8;6;4;0.1;1.4;1099;3.63967242948135;-0.6062176;1.15;-0.5788301;1.169466;0.4499513;2.036231;0.4715146;2.055163;
637952090991511496;1471.28;8;6;4;0.1;1.4;2699;1.48203038162282;0.6893654;1.621554;0.6605089;1.640964;-0.6062176;1.15;-0.5788301;1.169466;
637952091021500810;1474.278;8;6;4;0.1;1.4;2999;1.33377792597533;-0.6893655;1.621553;-0.7029073;1.583722;0.6893654;1.621554;0.6605089;1.640964;
637952091032493489;1475.378;8;6;4;0.1;1.4;1100;3.63636363636364;0.6062179;1.15;0.5731555;1.176313;-0.6893655;1.621553;-0.7029073;1.583722;
637952091045486653;1476.677;8;6;4;0.1;1.4;1299;3.07929176289453;-0.4499517;2.036231;-0.444346;2.018604;0.6062179;1.15;0.5731555;1.176313;
637952091059598142;1478.088;8;6;4;0.1;1.4;1411;2.83486888731396;0.2394144;0.8422153;0.2274477;0.8735945;-0.4499517;2.036231;-0.444346;2.018604;
637952091087580128;1480.886;8;6;4.5;0.1;2.2;1400;3.21428571428571;-0.3762217;0.4663379;-0.3992462;0.4949186;0;2.6;-0.02437006;2.603528;
637952091112565740;1483.385;8;6;4.5;0.1;2.2;2499;1.80072028811525;0.7070663;2.342649;0.6709312;2.338705;-0.3762217;0.4663379;-0.3992462;0.4949186;
637952091127559396;1484.885;8;6;4.5;0.1;2.2;1500;3;-0.9526277;0.9499994;-0.9437219;0.9490075;0.7070663;2.342649;0.6709312;2.338705;
637952091141562802;1486.284;8;6;4.5;0.1;2.2;1399;3.21658327376698;1.083289;1.691013;1.054815;1.676939;-0.9526277;0.9499994;-0.9437219;0.9490075;
637952091156556452;1487.783;8;6;4.5;0.1;2.2;1499;3.00200133422282;-1.083289;1.691012;-1.066097;1.70021;1.083289;1.691013;1.054815;1.676939;
637952091170549861;1489.182;8;6;4.5;0.1;2.2;1399;3.21658327376698;0.9526281;0.9500003;0.9304324;0.9560494;-1.083289;1.691012;-1.066097;1.70021;
637952091185643536;1490.693;8;6;4.5;0.1;2.2;1510;2.98013245033113;-0.7070671;2.342648;-0.6891128;2.330822;0.9526281;0.9500003;0.9304324;0.9560494;
637952091199636952;1492.092;8;6;4.5;0.1;2.2;1399;3.21658327376698;0.3762226;0.4663382;0.3788897;0.5055048;-0.7070671;2.342648;-0.6891128;2.330822;
637952091252619848;1497.39;8;6;1.5;1.1;2;2799;0.535905680600214;-0.3420197;0.5603072;-0.1512009;1.021017;0;2.5;0.03440866;1.953107;
637952091267613498;1498.889;8;6;1.5;1.1;2;1499;1.00066711140761;0.6427875;2.266045;0.4426674;1.89995;-0.3420197;0.5603072;-0.1512009;1.021017;
637952091282607148;1500.388;8;6;1.5;1.1;2;1499;1.00066711140761;-0.8660251;0.9999995;-0.7758648;1.355209;0.6427875;2.266045;0.4426674;1.89995;
637952091295600313;1501.688;8;6;1.5;1.1;2;1299;1.15473441108545;0.9848077;1.673648;0.5890791;1.596873;-0.8660251;0.9999995;-0.7758648;1.355209;
637952091306592989;1502.787;8;6;1.5;1.1;2;1100;1.36363636363636;-0.9848078;1.673648;-0.7262612;1.651366;0.9848077;1.673648;0.5890791;1.596873;
637952091313584698;1503.487;8;6;1.5;1.1;2;699;2.14592274678112;0.8660256;1;0.4644074;1.334606;-0.9848078;1.673648;-0.7262612;1.651366;
637952091331579069;1505.286;8;6;1.5;1.1;2;1799;0.833796553640912;-0.6427882;2.266044;-0.3280173;2.079219;0.8660256;1;0.4644074;1.334606;
637952091340691292;1506.197;8;6;1.5;1.1;2;911;1.64654226125137;0.3420205;0.5603075;0.1200068;1.030117;-0.6427882;2.266044;-0.3280173;2.079219;
637952092054152292;1577.542;8;7;4.5;0.1;2.2;2310;1.94805194805195;-0.3762217;0.4663379;-0.3426582;0.471315;0;2.6;-0.008339369;2.614458;
637952092068145696;1578.941;8;7;4.5;0.1;2.2;1399;3.21658327376698;0.7070663;2.342649;0.6837617;2.315039;-0.3762217;0.4663379;-0.3426582;0.471315;
637952092084149595;1580.541;8;7;4.5;0.1;2.2;1600;2.8125;-0.9526277;0.9499994;-0.9102762;0.9400103;0.7070663;2.342649;0.6837617;2.315039;
637952092120118360;1584.138;8;7;4.5;0.1;2.2;3597;1.25104253544621;1.083289;1.691013;1.053027;1.689184;-0.9526277;0.9499994;-0.9102762;0.9400103;
637952092134111761;1585.538;8;7;4.5;0.1;2.2;1399;3.21658327376698;-1.083289;1.691012;-1.059025;1.684435;1.083289;1.691013;1.053027;1.689184;
637952092150105656;1587.137;8;7;4.5;0.1;2.2;1599;2.81425891181989;0.9526281;0.9500003;0.941031;0.9702827;-1.083289;1.691012;-1.059025;1.684435;
637952092166101339;1588.736;8;7;4.5;0.1;2.2;1600;2.8125;-0.7070671;2.342648;-0.6721312;2.342113;0.9526281;0.9500003;0.941031;0.9702827;
637952092181092857;1590.236;8;7;4.5;0.1;2.2;1499;3.00200133422282;0.3762226;0.4663382;0.3275335;0.4745058;-0.7070671;2.342648;-0.6721312;2.342113;
637952092221186530;1594.245;8;7;4;0.1;1.4;2710;1.4760147601476;-0.2394138;0.8422151;-0.225498;0.8522674;0;2.2;0.006329127;2.179823;
637952092240182203;1596.144;8;7;4;0.1;1.4;1899;2.10637177461822;0.4499513;2.036231;0.4310719;2.014646;-0.2394138;0.8422151;-0.225498;0.8522674;
637952092258556675;1597.989;8;7;4;0.1;1.4;1845;2.1680216802168;-0.6062176;1.15;-0.6534867;1.144566;0.4499513;2.036231;0.4310719;2.014646;
637952092300266834;1602.152;8;7;4;0.1;1.4;4163;0.960845544078789;0.6893654;1.621554;0.6647086;1.602248;-0.6062176;1.15;-0.6534867;1.144566;
637952092316250724;1603.751;8;7;4;0.1;1.4;1599;2.50156347717323;-0.6893655;1.621553;-0.6618063;1.632939;0.6893654;1.621554;0.6647086;1.602248;
637952092331254378;1605.251;8;7;4;0.1;1.4;1499;2.66844563042028;0.6062179;1.15;0.6222405;1.177054;-0.6893655;1.621553;-0.6618063;1.632939;
637952092347238270;1606.85;8;7;4;0.1;1.4;1599;2.50156347717323;-0.4499517;2.036231;-0.4701682;2.029308;0.6062179;1.15;0.6222405;1.177054;
637952092362231919;1608.349;8;7;4;0.1;1.4;1499;2.66844563042028;0.2394144;0.8422153;0.2265904;0.8780829;-0.4499517;2.036231;-0.4701682;2.029308;
637952092380226297;1610.149;8;7;2;0.6;1.8;800;2.5;-0.3078177;0.6542765;-0.2070964;0.9208983;0;2.4;0.02548969;2.155545;
637952092397220442;1611.848;8;7;2;0.6;1.8;1699;1.17716303708064;0.5785087;2.18944;0.4548431;2.016117;-0.3078177;0.6542765;-0.2070964;0.9208983;
637952092407212869;1612.847;8;7;2;0.6;1.8;999;2.002002002002;-0.7794226;1.05;-0.6101341;1.25475;0.5785087;2.18944;0.4548431;2.016117;
637952092416325094;1613.758;8;7;2;0.6;1.8;911;2.1953896816685;0.8863269;1.656283;0.7860798;1.64314;-0.7794226;1.05;-0.6101341;1.25475;
637952092425317284;1614.658;8;7;2;0.6;1.8;900;2.22222222222222;-0.8863271;1.656283;-0.7347919;1.646561;0.8863269;1.656283;0.7860798;1.64314;
637952092434319477;1615.557;8;7;2;0.6;1.8;900;2.22222222222222;0.779423;1.05;0.6779995;1.133011;-0.8863271;1.656283;-0.7347919;1.646561;
637952092443311664;1616.457;8;7;2;0.6;1.8;900;2.22222222222222;-0.5785094;2.18944;-0.5144674;2.129098;0.779423;1.05;0.6779995;1.133011;
637952092450303364;1617.156;8;7;2;0.6;1.8;700;2.85714285714286;0.3078185;0.6542768;0.01697794;0.6375707;-0.5785094;2.18944;-0.5144674;2.129098;
637952092488292623;1620.954;8;7;3;0.2;1.4;1299;2.3094688221709;-0.2394138;0.8422151;-0.2404442;0.9305425;0;2.2;-0.01616863;2.212247;
637952092509277736;1623.054;8;7;3;0.2;1.4;2099;1.4292520247737;0.4499513;2.036231;0.4032995;1.986598;-0.2394138;0.8422151;-0.2404442;0.9305425;
637952092520271944;1624.153;8;7;3;0.2;1.4;1099;2.72975432211101;-0.6062176;1.15;-0.5762317;1.228934;0.4499513;2.036231;0.4032995;1.986598;
637952092528273887;1624.953;8;7;3;0.2;1.4;800;3.75;0.6893654;1.621554;0.6397977;1.544309;-0.6062176;1.15;-0.5762317;1.228934;
637952092540265616;1626.152;8;7;3;0.2;1.4;1199;2.50208507089241;-0.6893655;1.621553;-0.6597504;1.623056;0.6893654;1.621554;0.6397977;1.544309;
637952092550378080;1627.163;8;7;3;0.2;1.4;1011;2.9673590504451;0.6062179;1.15;0.5298182;1.191181;-0.6893655;1.621553;-0.6597504;1.623056;
637952092566364557;1628.762;8;7;3;0.2;1.4;1599;1.87617260787993;-0.4499517;2.036231;-0.4137925;1.981037;0.6062179;1.15;0.5298182;1.191181;
637952092580362858;1630.161;8;7;3;0.2;1.4;1399;2.14438884917798;0.2394144;0.8422153;0.2180506;0.9347764;-0.4499517;2.036231;-0.4137925;1.981037;
637952092604348700;1632.56;8;7;2.5;0.3;1.4;1299;1.92455735180908;-0.2394138;0.8422151;-0.2007176;0.9709904;0;2.2;0.02501172;2.105765;
637952092616341623;1633.76;8;7;2.5;0.3;1.4;1199;2.08507089241034;0.4499513;2.036231;0.4296093;2.05175;-0.2394138;0.8422151;-0.2007176;0.9709904;
637952092634336003;1635.559;8;7;2.5;0.3;1.4;1799;1.38966092273485;-0.6062176;1.15;-0.5185597;1.194098;0.4499513;2.036231;0.4296093;2.05175;
637952092651330141;1637.258;8;7;2.5;0.3;1.4;1699;1.47145379635079;0.6893654;1.621554;0.6080659;1.584728;-0.6062176;1.15;-0.5185597;1.194098;
637952092663323063;1638.458;8;7;2.5;0.3;1.4;1199;2.08507089241034;-0.6893655;1.621553;-0.6414375;1.585432;0.6893654;1.621554;0.6080659;1.584728;
637952092674315742;1639.557;8;7;2.5;0.3;1.4;1100;2.27272727272727;0.6062179;1.15;0.5579291;1.174416;-0.6893655;1.621553;-0.6414375;1.585432;
637952092684708264;1640.604;8;7;2.5;0.3;1.4;1047;2.38777459407832;-0.4499517;2.036231;-0.5991275;2.051934;0.6062179;1.15;0.5579291;1.174416;
637952092694420634;1641.567;8;7;2.5;0.3;1.4;963;2.59605399792316;0.2394144;0.8422153;0.2457985;0.9639825;-0.4499517;2.036231;-0.5991275;2.051934;
637952092721407207;1644.266;8;7;1.5;1.1;2;1799;0.833796553640912;-0.3420197;0.5603072;-0.05338735;1.023764;0;2.5;0.06284551;2.143595;
637952092731409641;1645.266;8;7;1.5;1.1;2;1000;1.5;0.6427875;2.266045;0.4458074;1.832173;-0.3420197;0.5603072;-0.05338735;1.023764;
637952092739401589;1646.065;8;7;1.5;1.1;2;800;1.875;-0.8660251;0.9999995;-0.5494671;1.421686;0.6427875;2.266045;0.4458074;1.832173;
637952092755395487;1647.665;8;7;1.5;1.1;2;1599;0.938086303939963;0.9848077;1.673648;0.6168372;1.59963;-0.8660251;0.9999995;-0.5494671;1.421686;
637952092767388403;1648.864;8;7;1.5;1.1;2;1199;1.25104253544621;-0.9848078;1.673648;-0.4390607;1.665879;0.9848077;1.673648;0.6168372;1.59963;
637952092783382298;1650.463;8;7;1.5;1.1;2;1599;0.938086303939963;0.8660256;1;0.6377099;1.389462;-0.9848078;1.673648;-0.4390607;1.665879;
637952092795375218;1651.663;8;7;1.5;1.1;2;1199;1.25104253544621;-0.6427882;2.266044;-0.436224;1.92304;0.8660256;1;0.6377099;1.389462;
637952092805367657;1652.662;8;7;1.5;1.1;2;1000;1.5;0.3420205;0.5603075;0.08438657;0.961905;-0.6427882;2.266044;-0.436224;1.92304;
637952092836355199;1655.761;8;7;3.5;0.2;2;1299;2.69438029253272;-0.3420197;0.5603072;-0.3345039;0.6198347;0;2.5;0.01101303;2.478442;
637952092847357877;1656.86;8;7;3.5;0.2;2;1100;3.18181818181818;0.6427875;2.266045;0.6433629;2.178852;-0.3420197;0.5603072;-0.3345039;0.6198347;
637952092873447837;1659.47;8;7;3.5;0.2;2;2610;1.34099616858238;-0.8660251;0.9999995;-0.7845777;0.9884072;0.6427875;2.266045;0.6433629;2.178852;
637952092888441484;1660.969;8;7;3.5;0.2;2;1499;2.33488992661775;0.9848077;1.673648;0.9545178;1.643703;-0.8660251;0.9999995;-0.7845777;0.9884072;
637952092899434182;1662.069;8;7;3.5;0.2;2;1099;3.18471337579618;-0.9848078;1.673648;-0.9476236;1.669778;0.9848077;1.673648;0.9545178;1.643703;
637952092911439019;1663.268;8;7;3.5;0.2;2;1200;2.91666666666667;0.8660256;1;0.8484164;1.023455;-0.9848078;1.673648;-0.9476236;1.669778;
637952092938426414;1665.967;8;7;3.5;0.2;2;2699;1.29677658391997;-0.6427882;2.266044;-0.5954543;2.208601;0.8660256;1;0.8484164;1.023455;
637952092948418847;1666.967;8;7;3.5;0.2;2;999;3.5035035035035;0.3420205;0.5603075;0.2782837;0.6330961;-0.6427882;2.266044;-0.5954543;2.208601;
