637945355928101361;243.2831;9;0;1.5;1.1;2;1300;1.15384615384615;-0.3420197;0.5603072;-0.3125275;0.7443019;0;2.5;0.06606501;2.361316;
637945355938096980;244.2828;9;0;1.5;1.1;2;1000;1.5;0.6427875;2.266045;0.4727414;2.154001;-0.3420197;0.5603072;-0.3125275;0.7443019;
637945355950089693;245.482;9;0;1.5;1.1;2;1199;1.25104253544621;-0.8660251;0.9999995;-0.9504207;1.079352;0.6427875;2.266045;0.4727414;2.154001;
637945355960191977;246.4927;9;0;1.5;1.1;2;1011;1.48367952522255;0.9848077;1.673648;0.8621715;1.675833;-0.8660251;0.9999995;-0.9504207;1.079352;
637945355970184230;247.4921;9;0;1.5;1.1;2;999;1.5015015015015;-0.9848078;1.673648;-0.964137;1.671916;0.9848077;1.673648;0.8621715;1.675833;
637945355979296293;248.4031;9;0;1.5;1.1;2;911;1.64654226125137;0.8660256;1;0.7263364;1.14552;-0.9848078;1.673648;-0.964137;1.671916;
637945355989178532;249.3915;9;0;1.5;1.1;2;988;1.51821862348178;-0.6427882;2.266044;-0.4376397;2.425123;0.8660256;1;0.7263364;1.14552;
637945356008172830;251.2907;9;0;1.5;1.1;2;1899;0.789889415481833;0.3420205;0.5603075;0.2830772;0.7004975;-0.6427882;2.266044;-0.4376397;2.425123;
637945356054153227;255.8884;9;0;3;0.2;1.4;1299;2.3094688221709;-0.2394138;0.8422151;-0.2123787;0.9060837;0;2.2;0.01330405;2.207937;
637945356075137973;257.9875;9;0;3;0.2;1.4;2099;1.4292520247737;0.4499513;2.036231;0.4449842;2.041358;-0.2394138;0.8422151;-0.2123787;0.9060837;
637945356093132042;259.7866;9;0;3;0.2;1.4;1799;1.66759310728182;-0.6062176;1.15;-0.6089441;1.186308;0.4499513;2.036231;0.4449842;2.041358;
637945356108125434;261.2857;9;0;3;0.2;1.4;1499;2.00133422281521;0.6893654;1.621554;0.6023806;1.652576;-0.6062176;1.15;-0.6089441;1.186308;
637945356121228397;262.5963;9;0;3;0.2;1.4;1311;2.2883295194508;-0.6893655;1.621553;-0.6279899;1.614251;0.6893654;1.621554;0.6023806;1.652576;
637945356132220882;263.6957;9;0;3;0.2;1.4;1099;2.72975432211101;0.6062179;1.15;0.5916114;1.149944;-0.6893655;1.621553;-0.6279899;1.614251;
637945356150214953;265.4949;9;0;3;0.2;1.4;1799;1.66759310728182;-0.4499517;2.036231;-0.4154724;2.003113;0.6062179;1.15;0.5916114;1.149944;
637945356174320403;267.9051;9;0;3;0.2;1.4;2410;1.2448132780083;0.2394144;0.8422153;0.2243298;0.9066505;-0.4499517;2.036231;-0.4154724;2.003113;
637945356196305377;270.104;9;0;2;0.6;1.8;1100;1.81818181818182;-0.3078177;0.6542765;-0.3664321;0.8177903;0;2.4;0.06836011;2.501475;
637945356206307633;271.1035;9;0;2;0.6;1.8;999;2.002002002002;0.5785087;2.18944;0.5094081;2.17322;-0.3078177;0.6542765;-0.3664321;0.8177903;
637945356219290577;272.403;9;0;2;0.6;1.8;1299;1.53964588144727;-0.7794226;1.05;-0.699436;1.07495;0.5785087;2.18944;0.5094081;2.17322;
637945356228290296;273.3026;9;0;2;0.6;1.8;900;2.22222222222222;0.8863269;1.656283;0.8765634;1.603734;-0.7794226;1.05;-0.699436;1.07495;
637945356238292209;274.3023;9;0;2;0.6;1.8;1000;2;-0.8863271;1.656283;-0.7986501;1.620142;0.8863269;1.656283;0.8765634;1.603734;
637945356248283607;275.3016;9;0;2;0.6;1.8;999;2.002002002002;0.779423;1.05;0.7327392;1.081918;-0.8863271;1.656283;-0.7986501;1.620142;
637945356258273914;276.3011;9;0;2;0.6;1.8;999;2.002002002002;-0.5785094;2.18944;-0.5321516;2.235311;0.779423;1.05;0.7327392;1.081918;
637945356269276401;277.4007;9;0;2;0.6;1.8;1100;1.81818181818182;0.3078185;0.6542768;0.3014672;0.8399749;-0.5785094;2.18944;-0.5321516;2.235311;
637945356309361698;281.4097;9;0;3.5;0.2;2;1510;2.31788079470199;-0.3420197;0.5603072;-0.3687925;0.6177131;0;2.5;-0.01191754;2.446147;
637945356334358898;283.909;9;0;3.5;0.2;2;2499;1.40056022408964;0.6427875;2.266045;0.6179665;2.230244;-0.3420197;0.5603072;-0.3687925;0.6177131;
637945356353343192;285.8078;9;0;3.5;0.2;2;1899;1.84307530279094;-0.8660251;0.9999995;-0.8212903;1.027643;0.6427875;2.266045;0.6179665;2.230244;
637945356370337036;287.5071;9;0;3.5;0.2;2;1699;2.06003531489111;0.9848077;1.673648;0.9867394;1.705999;-0.8660251;0.9999995;-0.8212903;1.027643;
637945356387330878;289.2061;9;0;3.5;0.2;2;1699;2.06003531489111;-0.9848078;1.673648;-0.9326189;1.656963;0.9848077;1.673648;0.9867394;1.705999;
637945356408325629;291.3054;9;0;3.5;0.2;2;2099;1.66746069556932;0.8660256;1;0.8870189;1.016935;-0.9848078;1.673648;-0.9326189;1.656963;
637945356423309015;292.8047;9;0;3.5;0.2;2;1499;2.33488992661775;-0.6427882;2.266044;-0.5602536;2.250832;0.8660256;1;0.8870189;1.016935;
637945356448304671;295.3034;9;0;3.5;0.2;2;2499;1.40056022408964;0.3420205;0.5603075;0.3180452;0.607489;-0.6427882;2.266044;-0.5602536;2.250832;
637945356472400119;297.7134;9;0;2.5;0.3;1.4;1011;2.47279920870425;-0.2394138;0.8422151;-0.212705;0.9239446;0;2.2;0.01601118;2.114646;
637945356485393057;299.0128;9;0;2.5;0.3;1.4;1299;1.92455735180908;0.4499513;2.036231;0.3617668;1.973269;-0.2394138;0.8422151;-0.212705;0.9239446;
637945356496385546;300.1122;9;0;2.5;0.3;1.4;1099;2.27479526842584;-0.6062176;1.15;-0.5753801;1.172655;0.4499513;2.036231;0.3617668;1.973269;
637945356508388255;301.3118;9;0;2.5;0.3;1.4;1200;2.08333333333333;0.6893654;1.621554;0.6731181;1.616404;-0.6062176;1.15;-0.5753801;1.172655;
637945356518380517;302.3112;9;0;2.5;0.3;1.4;999;2.5025025025025;-0.6893655;1.621553;-0.6245664;1.672858;0.6893654;1.621554;0.6731181;1.616404;
637945356529373003;303.411;9;0;2.5;0.3;1.4;1100;2.27272727272727;0.6062179;1.15;0.6312849;1.165895;-0.6893655;1.621553;-0.6245664;1.672858;
637945356541475744;304.6213;9;0;2.5;0.3;1.4;1210;2.06611570247934;-0.4499517;2.036231;-0.3841362;2.019519;0.6062179;1.15;0.6312849;1.165895;
637945356555468905;306.0207;9;0;2.5;0.3;1.4;1399;1.78699070764832;0.2394144;0.8422153;0.1934692;0.8315263;-0.4499517;2.036231;-0.3841362;2.019519;
637945356595457945;310.0188;9;0;4;0.1;1.4;1499;2.66844563042028;-0.2394138;0.8422151;-0.2403623;0.8768592;0;2.2;-0.004103258;2.174266;
637945356613448361;311.818;9;0;4;0.1;1.4;1799;2.22345747637576;0.4499513;2.036231;0.4663507;2.016081;-0.2394138;0.8422151;-0.2403623;0.8768592;
637945356635431727;314.017;9;0;4;0.1;1.4;2199;1.81900864029104;-0.6062176;1.15;-0.5659307;1.136459;0.4499513;2.036231;0.4663507;2.016081;
637945356655426249;316.0162;9;0;4;0.1;1.4;1999;2.00100050025012;0.6893654;1.621554;0.655777;1.615835;-0.6062176;1.15;-0.5659307;1.136459;
637945356671422498;317.6156;9;0;4;0.1;1.4;1599;2.50156347717323;-0.6893655;1.621553;-0.675265;1.60587;0.6893654;1.621554;0.655777;1.615835;
637945356687413720;319.2148;9;0;4;0.1;1.4;1599;2.50156347717323;0.6062179;1.15;0.5924309;1.140876;-0.6893655;1.621553;-0.675265;1.60587;
637945356713512918;321.8245;9;0;4;0.1;1.4;2610;1.53256704980843;-0.4499517;2.036231;-0.4557179;2.001082;0.6062179;1.15;0.5924309;1.140876;
637945356737505348;324.2236;9;0;4;0.1;1.4;2399;1.66736140058358;0.2394144;0.8422153;0.2079155;0.8477938;-0.4499517;2.036231;-0.4557179;2.001082;
637945356813462529;331.8198;9;0;4.5;0.1;2.2;4498;1.00044464206314;-0.3762217;0.4663379;-0.3680387;0.4775795;0;2.6;-0.002398835;2.593694;
637945356834567302;333.9301;9;0;4.5;0.1;2.2;2110;2.13270142180095;0.7070663;2.342649;0.6796653;2.301816;-0.3762217;0.4663379;-0.3680387;0.4775795;
637945356853561595;335.8292;9;0;4.5;0.1;2.2;1899;2.3696682464455;-0.9526277;0.9499994;-0.9288119;0.9344785;0.7070663;2.342649;0.6796653;2.301816;
637945356870545438;337.5283;9;0;4.5;0.1;2.2;1699;2.64861683343143;1.083289;1.691013;1.053227;1.6934;-0.9526277;0.9499994;-0.9288119;0.9344785;
637945356896541316;340.1273;9;0;4.5;0.1;2.2;2599;1.73143516737207;-1.083289;1.691012;-1.067593;1.680731;1.083289;1.691013;1.053227;1.6934;
637945356918526289;342.326;9;0;4.5;0.1;2.2;2199;2.04638472032742;0.9526281;0.9500003;0.9111308;0.9630964;-1.083289;1.691012;-1.067593;1.680731;
637945356936520360;344.1252;9;0;4.5;0.1;2.2;1799;2.50138966092273;-0.7070671;2.342648;-0.7149504;2.306344;0.9526281;0.9500003;0.9111308;0.9630964;
637945356969617843;347.4349;9;0;4.5;0.1;2.2;3310;1.3595166163142;0.3762226;0.4663382;0.3663707;0.4568325;-0.7070671;2.342648;-0.7149504;2.306344;
637945357931959164;443.6678;9;1;3;0.2;1.4;1099;2.72975432211101;-0.2394138;0.8422151;-0.2132508;0.7913232;0;2.2;-0.0002229065;2.161537;
637945357945949139;445.0673;9;1;3;0.2;1.4;1399;2.14438884917798;0.4499513;2.036231;0.4581434;1.9793;-0.2394138;0.8422151;-0.2132508;0.7913232;
637945357960948463;446.5667;9;1;3;0.2;1.4;1499;2.00133422281521;-0.6062176;1.15;-0.5940493;1.171279;0.4499513;2.036231;0.4581434;1.9793;
637945357984033868;448.8766;9;1;3;0.2;1.4;2310;1.2987012987013;0.6893654;1.621554;0.6215107;1.59717;-0.6062176;1.15;-0.5940493;1.171279;
637945357998024286;450.2762;9;1;3;0.2;1.4;1400;2.14285714285714;-0.6893655;1.621553;-0.6454145;1.620054;0.6893654;1.621554;0.6215107;1.59717;
637945358015016868;451.9752;9;1;3;0.2;1.4;1699;1.76574455562095;0.6062179;1.15;0.6220052;1.160718;-0.6893655;1.621553;-0.6454145;1.620054;
637945358027009587;453.1747;9;1;3;0.2;1.4;1199;2.50208507089241;-0.4499517;2.036231;-0.4044991;2.042434;0.6062179;1.15;0.6220052;1.160718;
637945358041002751;454.5741;9;1;3;0.2;1.4;1399;2.14438884917798;0.2394144;0.8422153;0.255418;0.8802452;-0.4499517;2.036231;-0.4044991;2.042434;
637945358071989760;457.6726;9;1;4.5;0.1;2.2;1699;2.64861683343143;-0.3762217;0.4663379;-0.3799503;0.4938927;0;2.6;0.006833295;2.577133;
637945358100976319;460.5712;9;1;4.5;0.1;2.2;2899;1.55225939979303;0.7070663;2.342649;0.7134163;2.298436;-0.3762217;0.4663379;-0.3799503;0.4938927;
637945358121080862;462.5817;9;1;4.5;0.1;2.2;2010;2.23880597014925;-0.9526277;0.9499994;-0.9315352;0.9396912;0.7070663;2.342649;0.7134163;2.298436;
637945358163060356;466.7794;9;1;4.5;0.1;2.2;4198;1.07193901858028;1.083289;1.691013;1.072447;1.663321;-0.9526277;0.9499994;-0.9315352;0.9396912;
637945358182454743;468.7269;9;1;4.5;0.1;2.2;1947;2.31124807395994;-1.083289;1.691012;-1.034719;1.679417;1.083289;1.691013;1.072447;1.663321;
637945358200048722;470.4778;9;1;4.5;0.1;2.2;1751;2.56996002284409;0.9526281;0.9500003;0.923043;0.9740446;-1.083289;1.691012;-1.034719;1.679417;
637945358224044150;472.877;9;1;4.5;0.1;2.2;2399;1.87578157565652;-0.7070671;2.342648;-0.6828819;2.317963;0.9526281;0.9500003;0.923043;0.9740446;
637945358242028215;474.6758;9;1;4.5;0.1;2.2;1799;2.50138966092273;0.3762226;0.4663382;0.3376814;0.4953591;-0.7070671;2.342648;-0.6828819;2.317963;
637945358292110040;479.6846;9;1;4;0.1;1.4;2210;1.80995475113122;-0.2394138;0.8422151;-0.2389133;0.8551115;0;2.2;0.004797235;2.171557;
637945358323097070;482.7833;9;1;4;0.1;1.4;3099;1.29073894804776;0.4499513;2.036231;0.4198097;2.002076;-0.2394138;0.8422151;-0.2389133;0.8551115;
637945358339084768;484.3825;9;1;4;0.1;1.4;1599;2.50156347717323;-0.6062176;1.15;-0.6000319;1.169807;0.4499513;2.036231;0.4198097;2.002076;
637945358362083377;486.6814;9;1;4;0.1;1.4;2299;1.73988690735102;0.6893654;1.621554;0.7157677;1.613725;-0.6062176;1.15;-0.6000319;1.169807;
637945358378074545;488.2807;9;1;4;0.1;1.4;1599;2.50156347717323;-0.6893655;1.621553;-0.67169;1.608226;0.6893654;1.621554;0.7157677;1.613725;
637945358395063389;489.9799;9;1;4;0.1;1.4;1699;2.35432607416127;0.6062179;1.15;0.5746179;1.173997;-0.6893655;1.621553;-0.67169;1.608226;
637945358425162500;492.9896;9;1;4;0.1;1.4;3010;1.32890365448505;-0.4499517;2.036231;-0.4346754;2.009238;0.6062179;1.15;0.5746179;1.173997;
637945358455149282;495.9883;9;1;4;0.1;1.4;2999;1.33377792597533;0.2394144;0.8422153;0.2229235;0.8323745;-0.4499517;2.036231;-0.4346754;2.009238;
637945358476144030;498.0872;9;1;1.5;1.1;2;1100;1.36363636363636;-0.3420197;0.5603072;-0.3207623;1.0497;0;2.5;0.01780687;2.362531;
637945358484135838;498.8868;9;1;1.5;1.1;2;800;1.875;0.6427875;2.266045;0.5382101;2.119272;-0.3420197;0.5603072;-0.3207623;1.0497;
637945358494128092;499.8864;9;1;1.5;1.1;2;1000;1.5;-0.8660251;0.9999995;-0.8696908;1.247476;0.6427875;2.266045;0.5382101;2.119272;
637945358503240158;500.797;9;1;1.5;1.1;2;911;1.64654226125137;0.9848077;1.673648;0.8354337;1.705542;-0.8660251;0.9999995;-0.8696908;1.247476;
637945358523224679;502.7961;9;1;1.5;1.1;2;1999;0.750375187593797;-0.9848078;1.673648;-0.6504494;1.917471;0.9848077;1.673648;0.8354337;1.705542;
637945358533226938;503.7957;9;1;1.5;1.1;2;1000;1.5;0.8660256;1;0.6767047;1.119705;-0.9848078;1.673648;-0.6504494;1.917471;
637945358543219201;504.7952;9;1;1.5;1.1;2;999;1.5015015015015;-0.6427882;2.266044;-0.4904096;2.352385;0.8660256;1;0.6767047;1.119705;
637945358554211686;505.8946;9;1;1.5;1.1;2;1099;1.36487716105551;0.3420205;0.5603075;0.2932589;0.8498402;-0.6427882;2.266044;-0.4904096;2.352385;
637945358579197338;508.3935;9;1;3.5;0.2;2;1399;2.50178699070765;-0.3420197;0.5603072;-0.3286276;0.6104263;0;2.5;-0.04161843;2.557075;
637945358602192538;510.6924;9;1;3.5;0.2;2;2299;1.52240104393214;0.6427875;2.266045;0.6238718;2.197539;-0.3420197;0.5603072;-0.3286276;0.6104263;
637945358619186381;512.3917;9;1;3.5;0.2;2;1699;2.06003531489111;-0.8660251;0.9999995;-0.8389524;1.071343;0.6427875;2.266045;0.6238718;2.197539;
637945358630178868;513.491;9;1;3.5;0.2;2;1099;3.18471337579618;0.9848077;1.673648;0.8989764;1.630229;-0.8660251;0.9999995;-0.8389524;1.071343;
637945358642171581;514.6906;9;1;3.5;0.2;2;1200;2.91666666666667;-0.9848078;1.673648;-1.010512;1.632485;0.9848077;1.673648;0.8989764;1.630229;
637945358658275222;516.3009;9;1;3.5;0.2;2;1610;2.17391304347826;0.8660256;1;0.84602;1.026262;-0.9848078;1.673648;-1.010512;1.632485;
637945358671548225;517.6356;9;1;3.5;0.2;2;1335;2.62172284644195;-0.6427882;2.266044;-0.7075648;2.199764;0.8660256;1;0.84602;1.026262;
637945358686261552;519.0995;9;1;3.5;0.2;2;1464;2.39071038251366;0.3420205;0.5603075;0.2967592;0.6322557;-0.6427882;2.266044;-0.7075648;2.199764;
637945358711359173;521.6097;9;1;2.5;0.3;1.4;1111;2.25022502250225;-0.2394138;0.8422151;-0.2393104;0.8298124;0;2.2;0.02430513;2.148777;
637945358722361661;522.709;9;1;2.5;0.3;1.4;1099;2.27479526842584;0.4499513;2.036231;0.4156423;2.034403;-0.2394138;0.8422151;-0.2393104;0.8298124;
637945358732353921;523.7087;9;1;2.5;0.3;1.4;1000;2.5;-0.6062176;1.15;-0.5340125;1.211169;0.4499513;2.036231;0.4156423;2.034403;
637945358742346181;524.7083;9;1;2.5;0.3;1.4;1000;2.5;0.6893654;1.621554;0.635151;1.638408;-0.6062176;1.15;-0.5340125;1.211169;
637945358753346685;525.8076;9;1;2.5;0.3;1.4;1099;2.27479526842584;-0.6893655;1.621553;-0.6468589;1.636673;0.6893654;1.621554;0.635151;1.638408;
637945358764417819;526.9072;9;1;2.5;0.3;1.4;1100;2.27272727272727;0.6062179;1.15;0.630486;1.120504;-0.6893655;1.621553;-0.6468589;1.636673;
637945358776337062;528.1066;9;1;2.5;0.3;1.4;1200;2.08333333333333;-0.4499517;2.036231;-0.4461903;2.027681;0.6062179;1.15;0.630486;1.120504;
637945358796328063;530.1057;9;1;2.5;0.3;1.4;1999;1.25062531265633;0.2394144;0.8422153;0.2152244;0.927819;-0.4499517;2.036231;-0.4461903;2.027681;
637945358819313084;532.4048;9;1;2;0.6;1.8;1200;1.66666666666667;-0.3078177;0.6542765;-0.2694688;0.9126356;0;2.4;0.01374646;2.442122;
637945358831414238;533.6152;9;1;2;0.6;1.8;1210;1.65289256198347;0.5785087;2.18944;0.5214023;2.241793;-0.3078177;0.6542765;-0.2694688;0.9126356;
637945358842413799;534.7147;9;1;2;0.6;1.8;1099;1.81983621474067;-0.7794226;1.05;-0.658524;1.174733;0.5785087;2.18944;0.5214023;2.241793;
637945358852413820;535.7145;9;1;2;0.6;1.8;1000;2;0.8863269;1.656283;0.802703;1.704587;-0.7794226;1.05;-0.658524;1.174733;
637945358862404968;536.7139;9;1;2;0.6;1.8;999;2.002002002002;-0.8863271;1.656283;-0.8755719;1.611164;0.8863269;1.656283;0.802703;1.704587;
637945358873403157;537.8132;9;1;2;0.6;1.8;1099;1.81983621474067;0.779423;1.05;0.7024183;1.129192;-0.8863271;1.656283;-0.8755719;1.611164;
637945358885391138;539.0125;9;1;2;0.6;1.8;1199;1.66805671392827;-0.5785094;2.18944;-0.462208;2.026712;0.779423;1.05;0.7024183;1.129192;
637945358898384077;540.312;9;1;2;0.6;1.8;1299;1.53964588144727;0.3078185;0.6542768;0.284966;0.9157317;-0.5785094;2.18944;-0.462208;2.026712;
637945359501664941;600.6396;9;2;4.5;0.1;2.2;1459;3.08430431802605;-0.3762217;0.4663379;-0.4035656;0.5028698;0;2.6;0.0470115;2.59364;
637945359516928398;602.1741;9;2;4.5;0.1;2.2;1534;2.93350717079531;0.7070663;2.342649;0.6671975;2.313569;-0.3762217;0.4663379;-0.4035656;0.5028698;
637945359541643985;604.6378;9;2;4.5;0.1;2.2;2464;1.8262987012987;-0.9526277;0.9499994;-0.9349501;0.9591706;0.7070663;2.342649;0.6671975;2.313569;
637945359565739844;607.0476;9;2;4.5;0.1;2.2;2410;1.86721991701245;1.083289;1.691013;1.108498;1.674118;-0.9526277;0.9499994;-0.9349501;0.9591706;
637945359577732555;608.247;9;2;4.5;0.1;2.2;1199;3.75312760633862;-1.083289;1.691012;-1.059379;1.662046;1.083289;1.691013;1.108498;1.674118;
637945359590735493;609.5465;9;2;4.5;0.1;2.2;1299;3.46420323325635;0.9526281;0.9500003;0.9251218;0.969953;-1.083289;1.691012;-1.059379;1.662046;
637945359604728703;610.9459;9;2;4.5;0.1;2.2;1399;3.21658327376698;-0.7070671;2.342648;-0.7243164;2.319783;0.9526281;0.9500003;0.9251218;0.969953;
637945359617724201;612.2452;9;2;4.5;0.1;2.2;1299;3.46420323325635;0.3762226;0.4663382;0.3605981;0.4975718;-0.7070671;2.342648;-0.7243164;2.319783;
637945359636714243;614.1443;9;2;3;0.2;1.4;900;3.33333333333333;-0.2394138;0.8422151;-0.2442862;0.8633525;0;2.2;0.006806032;2.11949;
637945359658704469;616.3436;9;2;3;0.2;1.4;2199;1.36425648021828;0.4499513;2.036231;0.4624473;2.009272;-0.2394138;0.8422151;-0.2442862;0.8633525;
637945359669804287;617.4543;9;2;3;0.2;1.4;1111;2.7002700270027;-0.6062176;1.15;-0.5676242;1.216526;0.4499513;2.036231;0.4624473;2.009272;
637945359687799674;619.2532;9;2;3;0.2;1.4;1799;1.66759310728182;0.6893654;1.621554;0.7143092;1.628721;-0.6062176;1.15;-0.5676242;1.216526;
637945359697791934;620.2527;9;2;3;0.2;1.4;1000;3;-0.6893655;1.621553;-0.7660214;1.599577;0.6893654;1.621554;0.7143092;1.628721;
637945359716786231;622.1522;9;2;3;0.2;1.4;1899;1.57977883096367;0.6062179;1.15;0.5771697;1.186939;-0.6893655;1.621553;-0.7660214;1.599577;
637945359729779169;623.4514;9;2;3;0.2;1.4;1299;2.3094688221709;-0.4499517;2.036231;-0.44314;2.084212;0.6062179;1.15;0.5771697;1.186939;
637945359740771654;624.5507;9;2;3;0.2;1.4;1099;2.72975432211101;0.2394144;0.8422153;0.2156957;0.9219756;-0.4499517;2.036231;-0.44314;2.084212;
637945359764767081;626.9497;9;2;3.5;0.2;2;1200;2.91666666666667;-0.3420197;0.5603072;-0.358223;0.616141;0;2.5;0.0055729;2.440641;
637945359781760924;628.649;9;2;3.5;0.2;2;1699;2.06003531489111;0.6427875;2.266045;0.6441295;2.271236;-0.3420197;0.5603072;-0.358223;0.616141;
637945359792753410;629.7484;9;2;3.5;0.2;2;1099;3.18471337579618;-0.8660251;0.9999995;-0.8113425;1.005187;0.6427875;2.266045;0.6441295;2.271236;
637945359803745899;630.8478;9;2;3.5;0.2;2;1100;3.18181818181818;0.9848077;1.673648;0.991659;1.682087;-0.8660251;0.9999995;-0.8113425;1.005187;
637945359815848635;632.0585;9;2;3.5;0.2;2;1211;2.89017341040462;-0.9848078;1.673648;-1.014475;1.695936;0.9848077;1.673648;0.991659;1.682087;
637945359836843382;634.1575;9;2;3.5;0.2;2;2099;1.66746069556932;0.8660256;1;0.8467933;1.074214;-0.9848078;1.673648;-1.014475;1.695936;
637945359853837225;635.8567;9;2;3.5;0.2;2;1699;2.06003531489111;-0.6427882;2.266044;-0.5659881;2.23503;0.8660256;1;0.8467933;1.074214;
637945359879823102;638.4556;9;2;3.5;0.2;2;2599;1.34667179684494;0.3420205;0.5603075;0.3461753;0.5477225;-0.6427882;2.266044;-0.5659881;2.23503;
637945359898817401;640.3549;9;2;2;0.6;1.8;1000;2;-0.3078177;0.6542765;-0.259534;0.89026;0;2.4;0.0478003;2.385748;
637945359906809207;641.1542;9;2;2;0.6;1.8;799;2.50312891113892;0.5785087;2.18944;0.7182397;2.360714;-0.3078177;0.6542765;-0.259534;0.89026;
637945359915801240;642.0538;9;2;2;0.6;1.8;900;2.22222222222222;-0.7794226;1.05;-0.6979136;1.21364;0.5785087;2.18944;0.7182397;2.360714;
637945359924793270;642.9532;9;2;2;0.6;1.8;899;2.22469410456062;0.8863269;1.656283;0.8516402;1.70808;-0.7794226;1.05;-0.6979136;1.21364;
637945359932795084;643.7529;9;2;2;0.6;1.8;800;2.5;-0.8863271;1.656283;-0.7888738;1.780731;0.8863269;1.656283;0.8516402;1.70808;
637945359942791109;644.7526;9;2;2;0.6;1.8;1000;2;0.779423;1.05;0.7320057;1.002891;-0.8863271;1.656283;-0.7888738;1.780731;
637945359952793375;645.7521;9;2;2;0.6;1.8;1000;2;-0.5785094;2.18944;-0.4669018;2.330082;0.779423;1.05;0.7320057;1.002891;
637945359973778160;647.8513;9;2;2;0.6;1.8;2099;0.952834683182468;0.3078185;0.6542768;0.2356898;0.7492261;-0.5785094;2.18944;-0.4669018;2.330082;
637945359996880476;650.1612;9;2;4;0.1;1.4;1100;3.63636363636364;-0.2394138;0.8422151;-0.19374;0.8463545;0;2.2;-0.02071653;2.174244;
637945360010871845;651.5605;9;2;4;0.1;1.4;1399;2.85918513223731;0.4499513;2.036231;0.435827;1.989866;-0.2394138;0.8422151;-0.19374;0.8463545;
637945360039860479;654.4592;9;2;4;0.1;1.4;2899;1.37978613314936;-0.6062176;1.15;-0.5632075;1.173154;0.4499513;2.036231;0.435827;1.989866;
637945360052853417;655.7585;9;2;4;0.1;1.4;1299;3.07929176289453;0.6893654;1.621554;0.6589948;1.638224;-0.6062176;1.15;-0.5632075;1.173154;
637945360068847033;657.3577;9;2;4;0.1;1.4;1599;2.50156347717323;-0.6893655;1.621553;-0.6414557;1.63008;0.6893654;1.621554;0.6589948;1.638224;
637945360101944522;660.6674;9;2;4;0.1;1.4;3310;1.20845921450151;0.6062179;1.15;0.5826098;1.19239;-0.6893655;1.621553;-0.6414557;1.63008;
637945360121929039;662.6664;9;2;4;0.1;1.4;1999;2.00100050025012;-0.4499517;2.036231;-0.4334397;2.008857;0.6062179;1.15;0.5826098;1.19239;
637945360138922882;664.3657;9;2;4;0.1;1.4;1699;2.35432607416127;0.2394144;0.8422153;0.2262585;0.8497106;-0.4499517;2.036231;-0.4334397;2.008857;
637945360156916953;666.1648;9;2;1.5;1.1;2;899;1.66852057842047;-0.3420197;0.5603072;-0.3955404;1.090645;0;2.5;0.04620199;2.41529;
637945360164908760;666.9645;9;2;1.5;1.1;2;800;1.875;0.6427875;2.266045;0.798435;2.315721;-0.3420197;0.5603072;-0.3955404;1.090645;
637945360173910795;667.8641;9;2;1.5;1.1;2;900;1.66666666666667;-0.8660251;0.9999995;-0.9012841;1.376472;0.6427875;2.266045;0.798435;2.315721;
637945360181902603;668.6637;9;2;1.5;1.1;2;800;1.875;0.9848077;1.673648;0.9388289;1.714967;-0.8660251;0.9999995;-0.9012841;1.376472;
637945360188894184;669.3632;9;2;1.5;1.1;2;699;2.14592274678112;-0.9848078;1.673648;-0.8362223;1.860328;0.9848077;1.673648;0.9388289;1.714967;
637945360197896220;670.2629;9;2;1.5;1.1;2;900;1.66666666666667;0.8660256;1;0.7799365;1.195774;-0.9848078;1.673648;-0.8362223;1.860328;
637945360205888031;671.0624;9;2;1.5;1.1;2;799;1.87734668335419;-0.6427882;2.266044;-0.5372176;2.12985;0.8660256;1;0.7799365;1.195774;
637945360222881871;672.7616;9;2;1.5;1.1;2;1699;0.882872277810477;0.3420205;0.5603075;0.4011537;1.015293;-0.6427882;2.266044;-0.5372176;2.12985;
637945360243876617;674.8607;9;2;2.5;0.3;1.4;1200;2.08333333333333;-0.2394138;0.8422151;-0.2739074;0.8599479;0;2.2;0.04081764;2.317875;
637945360261980707;676.671;9;2;2.5;0.3;1.4;1810;1.38121546961326;0.4499513;2.036231;0.4271887;2.048238;-0.2394138;0.8422151;-0.2739074;0.8599479;
637945360272973198;677.7706;9;2;2.5;0.3;1.4;1100;2.27272727272727;-0.6062176;1.15;-0.6893045;1.146231;0.4499513;2.036231;0.4271887;2.048238;
637945360282965462;678.77;9;2;2.5;0.3;1.4;999;2.5025025025025;0.6893654;1.621554;0.6401451;1.663755;-0.6062176;1.15;-0.6893045;1.146231;
637945360294958172;679.9694;9;2;2.5;0.3;1.4;1199;2.08507089241034;-0.6893655;1.621553;-0.5996459;1.710157;0.6893654;1.621554;0.6401451;1.663755;
637945360305960663;681.069;9;2;2.5;0.3;1.4;1100;2.27272727272727;0.6062179;1.15;0.5688941;1.173853;-0.6893655;1.621553;-0.5996459;1.710157;
637945360320944049;682.5682;9;2;2.5;0.3;1.4;1499;1.66777851901268;-0.4499517;2.036231;-0.3762231;2.066196;0.6062179;1.15;0.5688941;1.173853;
637945360331948954;683.6679;9;2;2.5;0.3;1.4;1100;2.27272727272727;0.2394144;0.8422153;0.1747438;0.9528561;-0.4499517;2.036231;-0.3762231;2.066196;
637945360849257794;735.3994;9;3;2.5;0.3;1.4;900;2.77777777777778;-0.2394138;0.8422151;-0.2571617;0.8596371;0;2.2;0.03984456;2.114522;
637945360858259828;736.299;9;3;2.5;0.3;1.4;900;2.77777777777778;0.4499513;2.036231;0.3912354;2.014347;-0.2394138;0.8422151;-0.2571617;0.8596371;
637945360866251638;737.0985;9;3;2.5;0.3;1.4;799;3.12891113892365;-0.6062176;1.15;-0.710634;1.101351;0.4499513;2.036231;0.3912354;2.014347;
637945360874243444;737.8982;9;3;2.5;0.3;1.4;800;3.125;0.6893654;1.621554;0.7743524;1.588756;-0.6062176;1.15;-0.710634;1.101351;
637945360881245027;738.5979;9;3;2.5;0.3;1.4;700;3.57142857142857;-0.6893655;1.621553;-0.6387048;1.546521;0.6893654;1.621554;0.7743524;1.588756;
637945360890237062;739.4975;9;3;2.5;0.3;1.4;900;2.77777777777778;0.6062179;1.15;0.5667342;1.230206;-0.6893655;1.621553;-0.6387048;1.546521;
637945360904240222;740.8969;9;3;2.5;0.3;1.4;1399;1.78699070764832;-0.4499517;2.036231;-0.4192278;2.0885;0.6062179;1.15;0.5667342;1.230206;
637945360914232488;741.8962;9;3;2.5;0.3;1.4;999;2.5025025025025;0.2394144;0.8422153;0.2958425;0.9185041;-0.4499517;2.036231;-0.4192278;2.0885;
637945360944219270;744.8949;9;3;4;0.1;1.4;1758;2.27531285551763;-0.2394138;0.8422151;-0.2054298;0.8510673;0;2.2;-0.01962082;2.232993;
637945360964213794;746.8942;9;3;4;0.1;1.4;1999;2.00100050025012;0.4499513;2.036231;0.4954633;2.029937;-0.2394138;0.8422151;-0.2054298;0.8510673;
637945360982197861;748.6934;9;3;4;0.1;1.4;1799;2.22345747637576;-0.6062176;1.15;-0.5663106;1.157215;0.4499513;2.036231;0.4954633;2.029937;
637945361000301955;750.5035;9;3;4;0.1;1.4;1810;2.20994475138122;0.6893654;1.621554;0.6574108;1.608036;-0.6062176;1.15;-0.5663106;1.157215;
637945361011294437;751.603;9;3;4;0.1;1.4;1100;3.63636363636364;-0.6893655;1.621553;-0.6439046;1.625045;0.6893654;1.621554;0.6574108;1.608036;
637945361026287831;753.1022;9;3;4;0.1;1.4;1499;2.66844563042028;0.6062179;1.15;0.6110919;1.166864;-0.6893655;1.621553;-0.6439046;1.625045;
637945361043281674;754.8015;9;3;4;0.1;1.4;1699;2.35432607416127;-0.4499517;2.036231;-0.448813;2.018108;0.6062179;1.15;0.6110919;1.166864;
637945361071274260;757.6003;9;3;4;0.1;1.4;2799;1.4290818149339;0.2394144;0.8422153;0.248064;0.842733;-0.4499517;2.036231;-0.448813;2.018108;
637945361103255441;760.7987;9;3;3.5;0.2;2;1499;2.33488992661775;-0.3420197;0.5603072;-0.3171825;0.5769353;0;2.5;0.01563304;2.440086;
637945361113255475;761.7985;9;3;3.5;0.2;2;1000;3.5;0.6427875;2.266045;0.6999797;2.216829;-0.3420197;0.5603072;-0.3171825;0.5769353;
637945361124243689;762.8978;9;3;3.5;0.2;2;1099;3.18471337579618;-0.8660251;0.9999995;-0.7989225;0.9984443;0.6427875;2.266045;0.6999797;2.216829;
637945361135345718;764.0082;9;3;3.5;0.2;2;1110;3.15315315315315;0.9848077;1.673648;0.8903513;1.657936;-0.8660251;0.9999995;-0.7989225;0.9984443;
637945361153425536;765.8075;9;3;3.5;0.2;2;1799;1.94552529182879;-0.9848078;1.673648;-0.9026184;1.727303;0.9848077;1.673648;0.8903513;1.657936;
637945361166335187;767.1069;9;3;3.5;0.2;2;1299;2.69438029253272;0.8660256;1;0.8478651;1.030294;-0.9848078;1.673648;-0.9026184;1.727303;
637945361179325503;768.4063;9;3;3.5;0.2;2;1299;2.69438029253272;-0.6427882;2.266044;-0.6056339;2.226926;0.8660256;1;0.8478651;1.030294;
637945361202320004;770.7052;9;3;3.5;0.2;2;2299;1.52240104393214;0.3420205;0.5603075;0.3890146;0.578656;-0.6427882;2.266044;-0.6056339;2.226926;
637945361243299273;774.8032;9;3;4.5;0.1;2.2;2199;2.04638472032742;-0.3762217;0.4663379;-0.341578;0.4875124;0;2.6;-0.02812747;2.582842;
637945361264284019;776.9022;9;3;4.5;0.1;2.2;2099;2.14387803716055;0.7070663;2.342649;0.7125966;2.359267;-0.3762217;0.4663379;-0.341578;0.4875124;
637945361286389018;779.1123;9;3;4.5;0.1;2.2;2210;2.03619909502262;-0.9526277;0.9499994;-0.9263818;0.9537227;0.7070663;2.342649;0.7125966;2.359267;
637945361304383086;780.9115;9;3;4.5;0.1;2.2;1799;2.50138966092273;1.083289;1.691013;1.034079;1.697307;-0.9526277;0.9499994;-0.9263818;0.9537227;
637945361331599244;783.6405;9;3;4.5;0.1;2.2;2729;1.64895566141444;-1.083289;1.691012;-1.037397;1.671163;1.083289;1.691013;1.034079;1.697307;
637945361346362583;785.1097;9;3;4.5;0.1;2.2;1469;3.06330837304289;0.9526281;0.9500003;0.9286792;0.9755534;-1.083289;1.691012;-1.037397;1.671163;
637945361365356877;787.0088;9;3;4.5;0.1;2.2;1899;2.3696682464455;-0.7070671;2.342648;-0.7087597;2.318972;0.9526281;0.9500003;0.9286792;0.9755534;
637945361381340495;788.6078;9;3;4.5;0.1;2.2;1599;2.81425891181989;0.3762226;0.4663382;0.3927048;0.5047833;-0.7070671;2.342648;-0.7087597;2.318972;
637945361398334335;790.3073;9;3;1.5;1.1;2;900;1.66666666666667;-0.3420197;0.5603072;-0.3912989;0.9872504;0;2.5;0.09498115;2.257927;
637945361405335918;791.0068;9;3;1.5;1.1;2;700;2.14285714285714;0.6427875;2.266045;0.5294955;2.174365;-0.3420197;0.5603072;-0.3912989;0.9872504;
637945361413327728;791.8066;9;3;1.5;1.1;2;800;1.875;-0.8660251;0.9999995;-0.7959425;1.214947;0.6427875;2.266045;0.5294955;2.174365;
637945361421329534;792.6061;9;3;1.5;1.1;2;799;1.87734668335419;0.9848077;1.673648;0.9210896;1.760117;-0.8660251;0.9999995;-0.7959425;1.214947;
637945361429321344;793.4058;9;3;1.5;1.1;2;800;1.875;-0.9848078;1.673648;-0.7114987;1.774933;0.9848077;1.673648;0.9210896;1.760117;
637945361437703242;794.2516;9;3;1.5;1.1;2;846;1.77304964539007;0.8660256;1;1.318531;1.164435;-0.9848078;1.673648;-0.7114987;1.774933;
637945361452426569;795.7159;9;3;1.5;1.1;2;1464;1.02459016393443;-0.6427882;2.266044;-0.2991267;2.041177;0.8660256;1;1.318531;1.164435;
637945361461418603;796.6154;9;3;1.5;1.1;2;900;1.66666666666667;0.3420205;0.5603075;0.3131219;0.8938696;-0.6427882;2.266044;-0.2991267;2.041177;
637945361479412672;798.4145;9;3;2;0.6;1.8;900;2.22222222222222;-0.3078177;0.6542765;-0.2868667;0.8206069;0;2.4;0.08894842;2.469947;
637945361487409534;799.2142;9;3;2;0.6;1.8;800;2.5;0.5785087;2.18944;0.6121531;2.266221;-0.3078177;0.6542765;-0.2868667;0.8206069;
637945361496401567;800.1136;9;3;2;0.6;1.8;900;2.22222222222222;-0.7794226;1.05;-0.6571233;1.128037;0.5785087;2.18944;0.6121531;2.266221;
637945361510391147;801.513;9;3;2;0.6;1.8;1399;1.42959256611866;0.8863269;1.656283;0.9106258;1.712954;-0.7794226;1.05;-0.6571233;1.128037;
637945361517392727;802.2129;9;3;2;0.6;1.8;700;2.85714285714286;-0.8863271;1.656283;-0.7383655;1.682355;0.8863269;1.656283;0.9106258;1.712954;
637945361526394766;803.1122;9;3;2;0.6;1.8;899;2.22469410456062;0.779423;1.05;0.6568459;1.023324;-0.8863271;1.656283;-0.7383655;1.682355;
637945361535496825;804.0231;9;3;2;0.6;1.8;911;2.1953896816685;-0.5785094;2.18944;-0.5423357;2.154766;0.779423;1.05;0.6568459;1.023324;
637945361544488856;804.9227;9;3;2;0.6;1.8;900;2.22222222222222;0.3078185;0.6542768;0.4225704;0.759701;-0.5785094;2.18944;-0.5423357;2.154766;
637945361563486807;806.8218;9;3;3;0.2;1.4;900;3.33333333333333;-0.2394138;0.8422151;-0.2161533;0.898128;0;2.2;-0.02835736;2.133227;
637945361573479069;807.8216;9;3;3;0.2;1.4;1000;3;0.4499513;2.036231;0.4800102;2.099254;-0.2394138;0.8422151;-0.2161533;0.898128;
637945361595464038;810.0204;9;3;3;0.2;1.4;2199;1.36425648021828;-0.6062176;1.15;-0.6041486;1.200931;0.4499513;2.036231;0.4800102;2.099254;
637945361613468113;811.8197;9;3;3;0.2;1.4;1799;1.66759310728182;0.6893654;1.621554;0.6327156;1.700972;-0.6062176;1.15;-0.6041486;1.200931;
637945361622460144;812.7191;9;3;3;0.2;1.4;899;3.33704115684093;-0.6893655;1.621553;-0.6316647;1.579247;0.6893654;1.621554;0.6327156;1.700972;
637945361634452856;813.9185;9;3;3;0.2;1.4;1199;2.50208507089241;0.6062179;1.15;0.6475424;1.128599;-0.6893655;1.621553;-0.6316647;1.579247;
637945361643444890;814.8181;9;3;3;0.2;1.4;900;3.33333333333333;-0.4499517;2.036231;-0.4117709;2.127174;0.6062179;1.15;0.6475424;1.128599;
637945361652446926;815.7177;9;3;3;0.2;1.4;900;3.33333333333333;0.2394144;0.8422153;0.263175;0.8714805;-0.4499517;2.036231;-0.4117709;2.127174;
637945362738056870;924.2785;9;4;4;0.1;1.4;1599;2.50156347717323;-0.2394138;0.8422151;-0.2108822;0.8436712;0;2.2;0.02697809;2.217957;
637945362758046131;926.2775;9;4;4;0.1;1.4;1999;2.00100050025012;0.4499513;2.036231;0.4296636;1.994204;-0.2394138;0.8422151;-0.2108822;0.8436712;
637945362772040448;927.6768;9;4;4;0.1;1.4;1399;2.85918513223731;-0.6062176;1.15;-0.6090403;1.164437;0.4499513;2.036231;0.4296636;1.994204;
637945362786033608;929.0763;9;4;4;0.1;1.4;1399;2.85918513223731;0.6893654;1.621554;0.6417236;1.624259;-0.6062176;1.15;-0.6090403;1.164437;
637945362802027225;930.6757;9;4;4;0.1;1.4;1599;2.50156347717323;-0.6893655;1.621553;-0.6414705;1.632014;0.6893654;1.621554;0.6417236;1.624259;
637945362822011745;932.6747;9;4;4;0.1;1.4;1999;2.00100050025012;0.6062179;1.15;0.5800103;1.188331;-0.6893655;1.621553;-0.6414705;1.632014;
637945362842116292;934.6847;9;4;4;0.1;1.4;2010;1.99004975124378;-0.4499517;2.036231;-0.4352489;1.994569;0.6062179;1.15;0.5800103;1.188331;
637945362855109231;935.9842;9;4;4;0.1;1.4;1299;3.07929176289453;0.2394144;0.8422153;0.273564;0.8596047;-0.4499517;2.036231;-0.4352489;1.994569;
637945362878094430;938.2829;9;4;3;0.2;1.4;1299;2.3094688221709;-0.2394138;0.8422151;-0.2002101;0.8866225;0;2.2;0.007058179;2.18935;
637945362889096917;939.3826;9;4;3;0.2;1.4;1100;2.72727272727273;0.4499513;2.036231;0.4370109;2.018255;-0.2394138;0.8422151;-0.2002101;0.8866225;
637945362900089404;940.4821;9;4;3;0.2;1.4;1099;2.72975432211101;-0.6062176;1.15;-0.5765174;1.161615;0.4499513;2.036231;0.4370109;2.018255;
637945362909081438;941.3817;9;4;3;0.2;1.4;900;3.33333333333333;0.6893654;1.621554;0.6437472;1.56761;-0.6062176;1.15;-0.5765174;1.161615;
637945362918073472;942.2811;9;4;3;0.2;1.4;899;3.33704115684093;-0.6893655;1.621553;-0.696901;1.629563;0.6893654;1.621554;0.6437472;1.56761;
637945362928075727;943.2808;9;4;3;0.2;1.4;1000;3;0.6062179;1.15;0.6005712;1.124255;-0.6893655;1.621553;-0.696901;1.629563;
637945362943069123;944.7801;9;4;3;0.2;1.4;1499;2.00133422281521;-0.4499517;2.036231;-0.4022094;2.006919;0.6062179;1.15;0.6005712;1.124255;
637945362959062740;946.3793;9;4;3;0.2;1.4;1599;1.87617260787993;0.2394144;0.8422153;0.2399385;0.9332732;-0.4499517;2.036231;-0.4022094;2.006919;
637945362988159321;949.2892;9;4;4.5;0.1;2.2;1311;3.4324942791762;-0.3762217;0.4663379;-0.3781948;0.4646304;0;2.6;-0.004758731;2.578942;
637945363009144061;951.3881;9;4;4.5;0.1;2.2;2099;2.14387803716055;0.7070663;2.342649;0.7260228;2.313451;-0.3762217;0.4663379;-0.3781948;0.4646304;
637945363022137007;952.6874;9;4;4.5;0.1;2.2;1299;3.46420323325635;-0.9526277;0.9499994;-0.9116274;0.9725758;0.7070663;2.342649;0.7260228;2.313451;
637945363034139721;953.887;9;4;4.5;0.1;2.2;1200;3.75;1.083289;1.691013;1.114932;1.679214;-0.9526277;0.9499994;-0.9116274;0.9725758;
637945363045242232;954.9976;9;4;4.5;0.1;2.2;1111;4.05040504050405;-1.083289;1.691012;-1.067345;1.666128;1.083289;1.691013;1.114932;1.679214;
637945363078229693;958.2961;9;4;4.5;0.1;2.2;3299;1.36404971203395;0.9526281;0.9500003;0.9338764;0.963962;-1.083289;1.691012;-1.067345;1.666128;
637945363091226129;959.5954;9;4;4.5;0.1;2.2;1299;3.46420323325635;-0.7070671;2.342648;-0.691627;2.307335;0.9526281;0.9500003;0.9338764;0.963962;
637945363113204256;961.7943;9;4;4.5;0.1;2.2;2199;2.04638472032742;0.3762226;0.4663382;0.3939092;0.4824651;-0.7070671;2.342648;-0.691627;2.307335;
637945363155297450;966.0035;9;4;3.5;0.2;2;1999;1.75087543771886;-0.3420197;0.5603072;-0.2706633;0.6055316;0;2.5;0.07799821;2.497339;
637945363166298627;967.103;9;4;3.5;0.2;2;1099;3.18471337579618;0.6427875;2.266045;0.6393793;2.285357;-0.3420197;0.5603072;-0.2706633;0.6055316;
637945363187283530;969.202;9;4;3.5;0.2;2;2099;1.66746069556932;-0.8660251;0.9999995;-0.8347766;1.071906;0.6427875;2.266045;0.6393793;2.285357;
637945363197285790;970.2017;9;4;3.5;0.2;2;1000;3.5;0.9848077;1.673648;0.9987868;1.631122;-0.8660251;0.9999995;-0.8347766;1.071906;
637945363208278277;971.3011;9;4;3.5;0.2;2;1099;3.18471337579618;-0.9848078;1.673648;-0.9235759;1.653283;0.9848077;1.673648;0.9987868;1.631122;
637945363219270762;972.4005;9;4;3.5;0.2;2;1099;3.18471337579618;0.8660256;1;0.8150555;1.002622;-0.9848078;1.673648;-0.9235759;1.653283;
637945363230263242;973.5001;9;4;3.5;0.2;2;1100;3.18181818181818;-0.6427882;2.266044;-0.5842389;2.241114;0.8660256;1;0.8150555;1.002622;
637945363243256189;974.7994;9;4;3.5;0.2;2;1299;2.69438029253272;0.3420205;0.5603075;0.297399;0.5823861;-0.6427882;2.266044;-0.5842389;2.241114;
637945363268361865;977.3097;9;4;1.5;1.1;2;1699;0.882872277810477;-0.3420197;0.5603072;-0.3370034;1.018333;0;2.5;0.05454462;2.219308;
637945363276363675;978.1093;9;4;1.5;1.1;2;800;1.875;0.6427875;2.266045;0.5663276;2.222296;-0.3420197;0.5603072;-0.3370034;1.018333;
637945363285355709;979.0087;9;4;1.5;1.1;2;899;1.66852057842047;-0.8660251;0.9999995;-0.7798671;1.324611;0.6427875;2.266045;0.5663276;2.222296;
637945363292347290;979.7084;9;4;1.5;1.1;2;700;2.14285714285714;0.9848077;1.673648;0.9902101;1.718307;-0.8660251;0.9999995;-0.7798671;1.324611;
637945363300349100;980.5082;9;4;1.5;1.1;2;800;1.875;-0.9848078;1.673648;-0.8662404;1.74386;0.9848077;1.673648;0.9902101;1.718307;
637945363309341134;981.4073;9;4;1.5;1.1;2;899;1.66852057842047;0.8660256;1;0.8666362;1.224349;-0.9848078;1.673648;-0.8662404;1.74386;
637945363316342714;982.1074;9;4;1.5;1.1;2;700;2.14285714285714;-0.6427882;2.266044;-0.4681527;2.134031;0.8660256;1;0.8666362;1.224349;
637945363325334751;983.0066;9;4;1.5;1.1;2;899;1.66852057842047;0.3420205;0.5603075;0.4308517;0.8111262;-0.6427882;2.266044;-0.4681527;2.134031;
637945363345329272;985.0059;9;4;2.5;0.3;1.4;1100;2.27272727272727;-0.2394138;0.8422151;-0.274274;0.8555611;0;2.2;0.01290778;2.33718;
637945363355321532;986.0054;9;4;2.5;0.3;1.4;1000;2.5;0.4499513;2.036231;0.4115657;2.002021;-0.2394138;0.8422151;-0.274274;0.8555611;
637945363365313796;987.0049;9;4;2.5;0.3;1.4;1000;2.5;-0.6062176;1.15;-0.4923527;1.215045;0.4499513;2.036231;0.4115657;2.002021;
637945363374315832;987.9045;9;4;2.5;0.3;1.4;900;2.77777777777778;0.6893654;1.621554;0.7678539;1.583465;-0.6062176;1.15;-0.4923527;1.215045;
637945363384418112;988.9152;9;4;2.5;0.3;1.4;1011;2.47279920870425;-0.6893655;1.621553;-0.7320945;1.56239;0.6893654;1.621554;0.7678539;1.583465;
637945363394410369;989.9147;9;4;2.5;0.3;1.4;1000;2.5;0.6062179;1.15;0.4902483;1.16242;-0.6893655;1.621553;-0.7320945;1.56239;
637945363403402403;990.8141;9;4;2.5;0.3;1.4;899;2.78086763070078;-0.4499517;2.036231;-0.4272224;2.042857;0.6062179;1.15;0.4902483;1.16242;
637945363414404895;991.9138;9;4;2.5;0.3;1.4;1100;2.27272727272727;0.2394144;0.8422153;0.2214436;0.8604521;-0.4499517;2.036231;-0.4272224;2.042857;
637945363431398739;993.613;9;4;2;0.6;1.8;900;2.22222222222222;-0.3078177;0.6542765;-0.2899017;0.8253595;0;2.4;0.04514414;2.411929;
637945363441390999;994.6125;9;4;2;0.6;1.8;999;2.002002002002;0.5785087;2.18944;0.4157676;2.315915;-0.3078177;0.6542765;-0.2899017;0.8253595;
637945363449382807;995.412;9;4;2;0.6;1.8;799;2.50312891113892;-0.7794226;1.05;-0.692502;1.11684;0.5785087;2.18944;0.4157676;2.315915;
637945363457384616;996.2117;9;4;2;0.6;1.8;800;2.5;0.8863269;1.656283;0.7211588;1.758097;-0.7794226;1.05;-0.692502;1.11684;
637945363465381475;997.0114;9;4;2;0.6;1.8;800;2.5;-0.8863271;1.656283;-0.75889;1.711426;0.8863269;1.656283;0.7211588;1.758097;
637945363474381188;997.9109;9;4;2;0.6;1.8;900;2.22222222222222;0.779423;1.05;0.7376235;1.064841;-0.8863271;1.656283;-0.75889;1.711426;
637945363489374577;999.4103;9;4;2;0.6;1.8;1499;1.33422281521014;-0.5785094;2.18944;-0.4150776;2.054362;0.779423;1.05;0.7376235;1.064841;
637945363499366840;1000.41;9;4;2;0.6;1.8;999;2.002002002002;0.3078185;0.6542768;0.348773;0.849026;-0.5785094;2.18944;-0.4150776;2.054362;
637945363987695692;1049.243;9;5;2;0.6;1.8;799;2.50312891113892;-0.3078177;0.6542765;-0.3461227;0.8670208;0;2.4;0.068492;2.339095;
637945363994687272;1049.943;9;5;2;0.6;1.8;700;2.85714285714286;0.5785087;2.18944;0.6397073;2.18606;-0.3078177;0.6542765;-0.3461227;0.8670208;
637945364002689082;1050.742;9;5;2;0.6;1.8;800;2.5;-0.7794226;1.05;-0.8112383;1.304578;0.5785087;2.18944;0.6397073;2.18606;
637945364009680666;1051.442;9;5;2;0.6;1.8;699;2.86123032904149;0.8863269;1.656283;0.8636164;1.761233;-0.7794226;1.05;-0.8112383;1.304578;
637945364016682249;1052.141;9;5;2;0.6;1.8;700;2.85714285714286;-0.8863271;1.656283;-0.8534927;1.741826;0.8863269;1.656283;0.8636164;1.761233;
637945364024674055;1052.941;9;5;2;0.6;1.8;800;2.5;0.779423;1.05;0.7400226;1.225756;-0.8863271;1.656283;-0.8534927;1.741826;
637945364030675411;1053.541;9;5;2;0.6;1.8;600;3.33333333333333;-0.5785094;2.18944;-0.6468279;2.123367;0.779423;1.05;0.7400226;1.225756;
637945364037676996;1054.24;9;5;2;0.6;1.8;700;2.85714285714286;0.3078185;0.6542768;0.3505404;0.701736;-0.5785094;2.18944;-0.6468279;2.123367;
637945364056771315;1056.151;9;5;3;0.2;1.4;900;3.33333333333333;-0.2394138;0.8422151;-0.2682433;0.7791522;0;2.2;-0.03104117;2.28784;
637945364075765611;1058.05;9;5;3;0.2;1.4;1899;1.57977883096367;0.4499513;2.036231;0.5371791;2.023206;-0.2394138;0.8422151;-0.2682433;0.7791522;
637945364089078621;1059.389;9;5;3;0.2;1.4;1339;2.24047796863331;-0.6062176;1.15;-0.6878664;1.176364;0.4499513;2.036231;0.5371791;2.023206;
637945364103861966;1060.859;9;5;3;0.2;1.4;1470;2.04081632653061;0.6893654;1.621554;0.734149;1.603752;-0.6062176;1.15;-0.6878664;1.176364;
637945364118855355;1062.359;9;5;3;0.2;1.4;1499;2.00133422281521;-0.6893655;1.621553;-0.6150441;1.629292;0.6893654;1.621554;0.734149;1.603752;
637945364128847617;1063.359;9;5;3;0.2;1.4;1000;3;0.6062179;1.15;0.6980599;1.182015;-0.6893655;1.621553;-0.6150441;1.629292;
637945364149842371;1065.457;9;5;3;0.2;1.4;2099;1.4292520247737;-0.4499517;2.036231;-0.3769084;2.009683;0.6062179;1.15;0.6980599;1.182015;
637945364159834625;1066.457;9;5;3;0.2;1.4;1000;3;0.2394144;0.8422153;0.2260975;0.9102724;-0.4499517;2.036231;-0.3769084;2.009683;
637945364188821178;1069.356;9;5;3.5;0.2;2;1799;1.94552529182879;-0.3420197;0.5603072;-0.3228198;0.5730909;0;2.5;-0.004726911;2.428662;
637945364207815476;1071.255;9;5;3.5;0.2;2;1899;1.84307530279094;0.6427875;2.266045;0.6493304;2.219016;-0.3420197;0.5603072;-0.3228198;0.5730909;
637945364219808188;1072.454;9;5;3.5;0.2;2;1200;2.91666666666667;-0.8660251;0.9999995;-0.8810402;1.048224;0.6427875;2.266045;0.6493304;2.219016;
637945364228803915;1073.354;9;5;3.5;0.2;2;900;3.88888888888889;0.9848077;1.673648;0.9722282;1.577857;-0.8660251;0.9999995;-0.8810402;1.048224;
637945364237913515;1074.264;9;5;3.5;0.2;2;911;3.84193194291987;-0.9848078;1.673648;-1.000458;1.612588;0.9848077;1.673648;0.9722282;1.577857;
637945364246905550;1075.164;9;5;3.5;0.2;2;900;3.88888888888889;0.8660256;1;0.8070295;0.96791;-0.9848078;1.673648;-1.000458;1.612588;
637945364258898264;1076.364;9;5;3.5;0.2;2;1199;2.91909924937448;-0.6427882;2.266044;-0.7048724;2.214749;0.8660256;1;0.8070295;0.96791;
637945364271891204;1077.663;9;5;3.5;0.2;2;1299;2.69438029253272;0.3420205;0.5603075;0.2923537;0.6025275;-0.6427882;2.266044;-0.7048724;2.214749;
637945364286894593;1079.162;9;5;1.5;1.1;2;700;2.14285714285714;-0.3420197;0.5603072;-0.01585037;0.8844701;0;2.5;0.02886279;2.217396;
637945364293996202;1079.873;9;5;1.5;1.1;2;711;2.10970464135021;0.6427875;2.266045;0.7300696;2.157642;-0.3420197;0.5603072;-0.01585037;0.8844701;
637945364300995536;1080.573;9;5;1.5;1.1;2;700;2.14285714285714;-0.8660251;0.9999995;-0.6074846;1.349017;0.6427875;2.266045;0.7300696;2.157642;
637945364307987120;1081.272;9;5;1.5;1.1;2;699;2.14592274678112;0.9848077;1.673648;1.025801;1.799041;-0.8660251;0.9999995;-0.6074846;1.349017;
637945364313989172;1081.872;9;5;1.5;1.1;2;600;2.5;-0.9848078;1.673648;-0.7210894;1.869822;0.9848077;1.673648;1.025801;1.799041;
637945364321989752;1082.672;9;5;1.5;1.1;2;800;1.875;0.8660256;1;0.8500344;1.210324;-0.9848078;1.673648;-0.7210894;1.869822;
637945364327986506;1083.271;9;5;1.5;1.1;2;600;2.5;-0.6427882;2.266044;-0.5842788;2.046124;0.8660256;1;0.8500344;1.210324;
637945364335978246;1084.071;9;5;1.5;1.1;2;800;1.875;0.3420205;0.5603075;0.3682139;0.9274894;-0.6427882;2.266044;-0.5842788;2.046124;
637945364379952610;1088.469;9;5;4;0.1;1.4;2099;1.90566936636494;-0.2394138;0.8422151;-0.245761;0.8599218;0;2.2;0.02047848;2.16984;
637945364397066478;1090.179;9;5;4;0.1;1.4;1711;2.33781414377557;0.4499513;2.036231;0.4598584;2.038427;-0.2394138;0.8422151;-0.245761;0.8599218;
637945364420081687;1092.482;9;5;4;0.1;1.4;2302;1.73761946133797;-0.6062176;1.15;-0.5596996;1.15735;0.4499513;2.036231;0.4598584;2.038427;
637945364435155095;1093.989;9;5;4;0.1;1.4;1507;2.6542800265428;0.6893654;1.621554;0.7135276;1.642355;-0.6062176;1.15;-0.5596996;1.15735;
637945364448148033;1095.288;9;5;4;0.1;1.4;1300;3.07692307692308;-0.6893655;1.621553;-0.6594434;1.632768;0.6893654;1.621554;0.7135276;1.642355;
637945364462141198;1096.687;9;5;4;0.1;1.4;1399;2.85918513223731;0.6062179;1.15;0.5710631;1.170902;-0.6893655;1.621553;-0.6594434;1.632768;
637945364486126622;1099.086;9;5;4;0.1;1.4;2399;1.66736140058358;-0.4499517;2.036231;-0.4107325;2.019093;0.6062179;1.15;0.5710631;1.170902;
637945364502120239;1100.686;9;5;4;0.1;1.4;1599;2.50156347717323;0.2394144;0.8422153;0.219733;0.8523359;-0.4499517;2.036231;-0.4107325;2.019093;
637945364522114756;1102.685;9;5;2.5;0.3;1.4;900;2.77777777777778;-0.2394138;0.8422151;-0.300238;0.8879601;0;2.2;0.01448094;2.077412;
637945364535107700;1103.984;9;5;2.5;0.3;1.4;1299;1.92455735180908;0.4499513;2.036231;0.4105426;2.012707;-0.2394138;0.8422151;-0.300238;0.8879601;
637945364544109736;1104.884;9;5;2.5;0.3;1.4;900;2.77777777777778;-0.6062176;1.15;-0.6390273;1.218481;0.4499513;2.036231;0.4105426;2.012707;
637945364554101995;1105.883;9;5;2.5;0.3;1.4;999;2.5025025025025;0.6893654;1.621554;0.5783566;1.645262;-0.6062176;1.15;-0.6390273;1.218481;
637945364562093803;1106.683;9;5;2.5;0.3;1.4;799;3.12891113892365;-0.6893655;1.621553;-0.6661156;1.604311;0.6893654;1.621554;0.5783566;1.645262;
637945364571085839;1107.582;9;5;2.5;0.3;1.4;900;2.77777777777778;0.6062179;1.15;0.522925;1.198407;-0.6893655;1.621553;-0.6661156;1.604311;
637945364581086681;1108.582;9;5;2.5;0.3;1.4;1000;2.5;-0.4499517;2.036231;-0.3926264;2.145287;0.6062179;1.15;0.522925;1.198407;
637945364590086180;1109.482;9;5;2.5;0.3;1.4;900;2.77777777777778;0.2394144;0.8422153;0.2292662;0.7960037;-0.4499517;2.036231;-0.3926264;2.145287;
637945364617181064;1112.191;9;5;4.5;0.1;2.2;1599;2.81425891181989;-0.3762217;0.4663379;-0.3438551;0.5039639;0;2.6;0.03352752;2.571744;
637945364634169874;1113.891;9;5;4.5;0.1;2.2;1699;2.64861683343143;0.7070663;2.342649;0.7196354;2.337414;-0.3762217;0.4663379;-0.3438551;0.5039639;
637945364662275008;1116.701;9;5;4.5;0.1;2.2;2810;1.60142348754448;-0.9526277;0.9499994;-0.9413441;0.9922825;0.7070663;2.342649;0.7196354;2.337414;
637945364678267874;1118.3;9;5;4.5;0.1;2.2;1599;2.81425891181989;1.083289;1.691013;1.077238;1.660873;-0.9526277;0.9499994;-0.9413441;0.9922825;
637945364691258334;1119.599;9;5;4.5;0.1;2.2;1299;3.46420323325635;-1.083289;1.691012;-1.046306;1.670326;1.083289;1.691013;1.077238;1.660873;
637945364708252960;1121.298;9;5;4.5;0.1;2.2;1699;2.64861683343143;0.9526281;0.9500003;0.9350057;0.9710353;-1.083289;1.691012;-1.046306;1.670326;
637945364725236801;1122.997;9;5;4.5;0.1;2.2;1699;2.64861683343143;-0.7070671;2.342648;-0.6904588;2.383517;0.9526281;0.9500003;0.9350057;0.9710353;
637945364770216973;1127.495;9;5;4.5;0.1;2.2;4498;1.00044464206314;0.3762226;0.4663382;0.367475;0.4880558;-0.7070671;2.342648;-0.6904588;2.383517;
637945365239577818;1174.429;9;6;3.5;0.2;2;900;3.88888888888889;-0.3420197;0.5603072;-0.3154964;0.6320511;0;2.5;0.01200722;2.575949;
637945365249570076;1175.429;9;6;3.5;0.2;2;999;3.5035035035035;0.6427875;2.266045;0.5702745;2.302024;-0.3420197;0.5603072;-0.3154964;0.6320511;
637945365271555046;1177.628;9;6;3.5;0.2;2;2199;1.59163256025466;-0.8660251;0.9999995;-0.8165634;1.002177;0.6427875;2.266045;0.5702745;2.302024;
637945365284557988;1178.927;9;6;3.5;0.2;2;1299;2.69438029253272;0.9848077;1.673648;1.023475;1.69306;-0.8660251;0.9999995;-0.8165634;1.002177;
637945365294550250;1179.927;9;6;3.5;0.2;2;999;3.5035035035035;-0.9848078;1.673648;-1.035365;1.64612;0.9848077;1.673648;1.023475;1.69306;
637945365305542736;1181.026;9;6;3.5;0.2;2;1100;3.18181818181818;0.8660256;1;0.8414847;1.037976;-0.9848078;1.673648;-1.035365;1.64612;
637945365328527935;1183.325;9;6;3.5;0.2;2;2299;1.52240104393214;-0.6427882;2.266044;-0.6209962;2.293773;0.8660256;1;0.8414847;1.037976;
637945365339530421;1184.425;9;6;3.5;0.2;2;1100;3.18181818181818;0.3420205;0.5603075;0.3342251;0.5950025;-0.6427882;2.266044;-0.6209962;2.293773;
637945365360615191;1186.535;9;6;3;0.2;1.4;1099;2.72975432211101;-0.2394138;0.8422151;-0.3202658;0.8953036;0;2.2;0.03813395;2.182219;
637945365378609261;1188.334;9;6;3;0.2;1.4;1799;1.66759310728182;0.4499513;2.036231;0.365237;2.030691;-0.2394138;0.8422151;-0.3202658;0.8953036;
637945365387595770;1189.233;9;6;3;0.2;1.4;899;3.33704115684093;-0.6062176;1.15;-0.5987149;1.138097;0.4499513;2.036231;0.365237;2.030691;
637945365396598291;1190.133;9;6;3;0.2;1.4;900;3.33333333333333;0.6893654;1.621554;0.6236061;1.642395;-0.6062176;1.15;-0.5987149;1.138097;
637945365405590323;1191.033;9;6;3;0.2;1.4;900;3.33333333333333;-0.6893655;1.621553;-0.6410802;1.644992;0.6893654;1.621554;0.6236061;1.642395;
637945365415593203;1192.032;9;6;3;0.2;1.4;999;3.003003003003;0.6062179;1.15;0.6065357;1.186465;-0.6893655;1.621553;-0.6410802;1.644992;
637945365430578133;1193.531;9;6;3;0.2;1.4;1499;2.00133422281521;-0.4499517;2.036231;-0.3989727;2.043649;0.6062179;1.15;0.6065357;1.186465;
637945365439577481;1194.431;9;6;3;0.2;1.4;900;3.33333333333333;0.2394144;0.8422153;0.2573169;0.8339558;-0.4499517;2.036231;-0.3989727;2.043649;
637945365455569629;1196.03;9;6;2.5;0.3;1.4;800;3.125;-0.2394138;0.8422151;-0.2180794;0.900645;0;2.2;0.04114339;2.257984;
637945365468678763;1197.341;9;6;2.5;0.3;1.4;1311;1.906941266209;0.4499513;2.036231;0.3913356;2.066779;-0.2394138;0.8422151;-0.2180794;0.900645;
637945365476669013;1198.141;9;6;2.5;0.3;1.4;800;3.125;-0.6062176;1.15;-0.6419948;1.102105;0.4499513;2.036231;0.3913356;2.066779;
637945365483665943;1198.84;9;6;2.5;0.3;1.4;699;3.57653791130186;0.6893654;1.621554;0.6433046;1.649266;-0.6062176;1.15;-0.6419948;1.102105;
637945365491669080;1199.64;9;6;2.5;0.3;1.4;800;3.125;-0.6893655;1.621553;-0.7164806;1.54573;0.6893654;1.621554;0.6433046;1.649266;
637945365499660168;1200.439;9;6;2.5;0.3;1.4;800;3.125;0.6062179;1.15;0.640662;1.265929;-0.6893655;1.621553;-0.7164806;1.54573;
637945365512653106;1201.739;9;6;2.5;0.3;1.4;1299;1.92455735180908;-0.4499517;2.036231;-0.3939288;2.067961;0.6062179;1.15;0.640662;1.265929;
637945365534648080;1203.938;9;6;2.5;0.3;1.4;2199;1.1368804001819;0.2394144;0.8422153;0.1521021;0.8186598;-0.4499517;2.036231;-0.3939288;2.067961;
637945365550641698;1205.537;9;6;2;0.6;1.8;800;2.5;-0.3078177;0.6542765;-0.2613909;0.8753287;0;2.4;0.1127078;2.218346;
637945365558633499;1206.337;9;6;2;0.6;1.8;800;2.5;0.5785087;2.18944;0.5047916;2.146945;-0.3078177;0.6542765;-0.2613909;0.8753287;
637945365567625539;1207.236;9;6;2;0.6;1.8;900;2.22222222222222;-0.7794226;1.05;-0.7947381;1.275936;0.5785087;2.18944;0.5047916;2.146945;
637945365576627578;1208.136;9;6;2;0.6;1.8;900;2.22222222222222;0.8863269;1.656283;0.8846562;1.756851;-0.7794226;1.05;-0.7947381;1.275936;
637945365585619608;1209.035;9;6;2;0.6;1.8;900;2.22222222222222;-0.8863271;1.656283;-0.794218;1.628401;0.8863269;1.656283;0.8846562;1.756851;
637945365595701882;1210.035;9;6;2;0.6;1.8;1000;2;0.779423;1.05;0.8187536;1.070422;-0.8863271;1.656283;-0.794218;1.628401;
637945365605724157;1211.046;9;6;2;0.6;1.8;1011;1.9782393669634;-0.5785094;2.18944;-0.7019883;2.174934;0.779423;1.05;0.8187536;1.070422;
637945365614716193;1211.945;9;6;2;0.6;1.8;900;2.22222222222222;0.3078185;0.6542768;0.359586;0.8195735;-0.5785094;2.18944;-0.7019883;2.174934;
637945365641702294;1214.644;9;6;4;0.1;1.4;1200;3.33333333333333;-0.2394138;0.8422151;-0.2172951;0.8746667;0;2.2;-0.03518172;2.188829;
637945365654695224;1215.943;9;6;4;0.1;1.4;1299;3.07929176289453;0.4499513;2.036231;0.462566;2.009008;-0.2394138;0.8422151;-0.2172951;0.8746667;
637945365676690204;1218.142;9;6;4;0.1;1.4;2199;1.81900864029104;-0.6062176;1.15;-0.6014219;1.14466;0.4499513;2.036231;0.462566;2.009008;
637945365706676980;1221.141;9;6;4;0.1;1.4;2999;1.33377792597533;0.6893654;1.621554;0.7205129;1.604597;-0.6062176;1.15;-0.6014219;1.14466;
637945365718669701;1222.34;9;6;4;0.1;1.4;1199;3.33611342785655;-0.6893655;1.621553;-0.6758769;1.594965;0.6893654;1.621554;0.7205129;1.604597;
637945365738664220;1224.339;9;6;4;0.1;1.4;1999;2.00100050025012;0.6062179;1.15;0.5742211;1.16923;-0.6893655;1.621553;-0.6758769;1.594965;
637945365752977460;1225.779;9;6;4;0.1;1.4;1439;2.77970813064628;-0.4499517;2.036231;-0.4041652;2.017728;0.6062179;1.15;0.5742211;1.16923;
637945365764755177;1226.949;9;6;4;0.1;1.4;1171;3.41588385994876;0.2394144;0.8422153;0.2213319;0.8771845;-0.4499517;2.036231;-0.4041652;2.017728;
637945365779748045;1228.449;9;6;1.5;1.1;2;700;2.14285714285714;-0.3420197;0.5603072;-0.3208007;1.037761;0;2.5;0.05385233;2.354117;
637945365787749854;1229.248;9;6;1.5;1.1;2;800;1.875;0.6427875;2.266045;0.5811262;2.10437;-0.3420197;0.5603072;-0.3208007;1.037761;
637945365795741661;1230.048;9;6;1.5;1.1;2;800;1.875;-0.8660251;0.9999995;-0.8357826;1.353165;0.6427875;2.266045;0.5811262;2.10437;
637945365802744093;1230.748;9;6;1.5;1.1;2;700;2.14285714285714;0.9848077;1.673648;0.5597631;1.839173;-0.8660251;0.9999995;-0.8357826;1.353165;
637945365809736419;1231.447;9;6;1.5;1.1;2;699;2.14592274678112;-0.9848078;1.673648;-0.6772605;1.826046;0.9848077;1.673648;0.5597631;1.839173;
637945365817739282;1232.247;9;6;1.5;1.1;2;800;1.875;0.8660256;1;0.8637582;1.504468;-0.9848078;1.673648;-0.6772605;1.826046;
637945365831731123;1233.646;9;6;1.5;1.1;2;1399;1.07219442458899;-0.6427882;2.266044;-0.4175367;2.032051;0.8660256;1;0.8637582;1.504468;
637945365841718139;1234.646;9;6;1.5;1.1;2;1000;1.5;0.3420205;0.5603075;0.3385573;0.8690083;-0.6427882;2.266044;-0.4175367;2.032051;
637945365878816155;1238.355;9;6;4.5;0.1;2.2;2499;1.80072028811525;-0.3762217;0.4663379;-0.3526903;0.4717346;0;2.6;0.00542353;2.585156;
637945365892809323;1239.755;9;6;4.5;0.1;2.2;1400;3.21428571428571;0.7070663;2.342649;0.7233257;2.300215;-0.3762217;0.4663379;-0.3526903;0.4717346;
637945365907142565;1241.195;9;6;4.5;0.1;2.2;1440;3.125;-0.9526277;0.9499994;-0.9503345;0.9996079;0.7070663;2.342649;0.7233257;2.300215;
637945365927797237;1243.253;9;6;4.5;0.1;2.2;2058;2.1865889212828;1.083289;1.691013;1.094736;1.687795;-0.9526277;0.9499994;-0.9503345;0.9996079;
637945365938799727;1244.353;9;6;4.5;0.1;2.2;1100;4.09090909090909;-1.083289;1.691012;-1.047766;1.675553;1.083289;1.691013;1.094736;1.687795;
637945365958784245;1246.351;9;6;4.5;0.1;2.2;1998;2.25225225225225;0.9526281;0.9500003;0.9452798;0.9169992;-1.083289;1.691012;-1.047766;1.675553;
637945365973777635;1247.851;9;6;4.5;0.1;2.2;1500;3;-0.7070671;2.342648;-0.7326438;2.3077;0.9526281;0.9500003;0.9452798;0.9169992;
637945365991771703;1249.65;9;6;4.5;0.1;2.2;1799;2.50138966092273;0.3762226;0.4663382;0.3693254;0.4613222;-0.7070671;2.342648;-0.7326438;2.3077;
637945366423117907;1292.785;9;7;1.5;1.1;2;699;2.14592274678112;-0.3420197;0.5603072;-0.2924026;0.9374979;0;2.5;0.1008221;2.28701;
637945366430119500;1293.485;9;7;1.5;1.1;2;700;2.14285714285714;0.6427875;2.266045;0.6209158;2.22287;-0.3420197;0.5603072;-0.2924026;0.9374979;
637945366438111299;1294.285;9;7;1.5;1.1;2;800;1.875;-0.8660251;0.9999995;-0.7884818;1.374132;0.6427875;2.266045;0.6209158;2.22287;
637945366444112655;1294.885;9;7;1.5;1.1;2;600;2.5;0.9848077;1.673648;0.7259316;1.73188;-0.8660251;0.9999995;-0.7884818;1.374132;
637945366451114244;1295.584;9;7;1.5;1.1;2;700;2.14285714285714;-0.9848078;1.673648;-0.6554387;1.878992;0.9848077;1.673648;0.7259316;1.73188;
637945366459106046;1296.384;9;7;1.5;1.1;2;800;1.875;0.8660256;1;0.6493962;1.438304;-0.9848078;1.673648;-0.6554387;1.878992;
637945366465107403;1296.984;9;7;1.5;1.1;2;600;2.5;-0.6427882;2.266044;-0.332222;2.061771;0.8660256;1;0.6493962;1.438304;
637945366474099439;1297.883;9;7;1.5;1.1;2;899;1.66852057842047;0.3420205;0.5603075;0.3258698;0.808679;-0.6427882;2.266044;-0.332222;2.061771;
637945366489202855;1299.394;9;7;2;0.6;1.8;811;2.46609124537608;-0.3078177;0.6542765;-0.3970678;0.8666242;0;2.4;0.01187978;2.381459;
637945366496244449;1300.097;9;7;2;0.6;1.8;704;2.84090909090909;0.5785087;2.18944;0.5521541;2.155024;-0.3078177;0.6542765;-0.3970678;0.8666242;
637945366505196471;1300.993;9;7;2;0.6;1.8;895;2.23463687150838;-0.7794226;1.05;-0.9081395;1.002259;0.5785087;2.18944;0.5521541;2.155024;
637945366512198054;1301.693;9;7;2;0.6;1.8;700;2.85714285714286;0.8863269;1.656283;0.7301933;1.667865;-0.7794226;1.05;-0.9081395;1.002259;
637945366519299661;1302.403;9;7;2;0.6;1.8;711;2.81293952180028;-0.8863271;1.656283;-0.8201731;1.643897;0.8863269;1.656283;0.7301933;1.667865;
637945366528294743;1303.303;9;7;2;0.6;1.8;900;2.22222222222222;0.779423;1.05;0.695924;1.209682;-0.8863271;1.656283;-0.8201731;1.643897;
637945366536291861;1304.103;9;7;2;0.6;1.8;800;2.5;-0.5785094;2.18944;-0.5786363;2.132358;0.779423;1.05;0.695924;1.209682;
637945366545283895;1305.002;9;7;2;0.6;1.8;900;2.22222222222222;0.3078185;0.6542768;0.3645265;0.8562934;-0.5785094;2.18944;-0.5786363;2.132358;
637945366595265199;1310;9;7;4;0.1;1.4;1399;2.85918513223731;-0.2394138;0.8422151;-0.2244552;0.8877677;0;2.2;0.01033275;2.160422;
637945366617256585;1312.199;9;7;4;0.1;1.4;2199;1.81900864029104;0.4499513;2.036231;0.4783021;2.036207;-0.2394138;0.8422151;-0.2244552;0.8877677;
637945366632249975;1313.698;9;7;4;0.1;1.4;1499;2.66844563042028;-0.6062176;1.15;-0.6478814;1.127946;0.4499513;2.036231;0.4783021;2.036207;
637945366653354748;1315.808;9;7;4;0.1;1.4;2110;1.8957345971564;0.6893654;1.621554;0.7204176;1.643117;-0.6062176;1.15;-0.6478814;1.127946;
637945366675559772;1318.037;9;7;4;0.1;1.4;2228;1.79533213644524;-0.6893655;1.621553;-0.6394683;1.622184;0.6893654;1.621554;0.7204176;1.643117;
637945366690333112;1319.506;9;7;4;0.1;1.4;1470;2.72108843537415;0.6062179;1.15;0.5918818;1.191634;-0.6893655;1.621553;-0.6394683;1.622184;
637945366706326730;1321.106;9;7;4;0.1;1.4;1599;2.50156347717323;-0.4499517;2.036231;-0.4308865;2.058869;0.6062179;1.15;0.5918818;1.191634;
637945366731312380;1323.605;9;7;4;0.1;1.4;2499;1.60064025610244;0.2394144;0.8422153;0.2430777;0.8319334;-0.4499517;2.036231;-0.4308865;2.058869;
637945366770301197;1327.503;9;7;3.5;0.2;2;2699;1.29677658391997;-0.3420197;0.5603072;-0.2866379;0.6042299;0;2.5;0.04672482;2.480029;
637945366782293910;1328.702;9;7;3.5;0.2;2;1200;2.91666666666667;0.6427875;2.266045;0.6810214;2.181205;-0.3420197;0.5603072;-0.2866379;0.6042299;
637945366794286624;1329.902;9;7;3.5;0.2;2;1199;2.91909924937448;-0.8660251;0.9999995;-0.8506654;0.9836415;0.6427875;2.266045;0.6810214;2.181205;
637945366805659198;1331.047;9;7;3.5;0.2;2;1145;3.05676855895197;0.9848077;1.673648;1.068266;1.635294;-0.8660251;0.9999995;-0.8506654;0.9836415;
637945366815381394;1332.012;9;7;3.5;0.2;2;965;3.62694300518135;-0.9848078;1.673648;-0.9579597;1.65185;0.9848077;1.673648;1.068266;1.635294;
637945366826373881;1333.111;9;7;3.5;0.2;2;1100;3.18181818181818;0.8660256;1;0.8088059;1.018504;-0.9848078;1.673648;-0.9579597;1.65185;
637945366839376821;1334.411;9;7;3.5;0.2;2;1299;2.69438029253272;-0.6427882;2.266044;-0.7072829;2.20842;0.8660256;1;0.8088059;1.018504;
637945366853369987;1335.81;9;7;3.5;0.2;2;1399;2.50178699070765;0.3420205;0.5603075;0.2797766;0.5090138;-0.6427882;2.266044;-0.7072829;2.20842;
637945366880466106;1338.52;9;7;3;0.2;1.4;999;3.003003003003;-0.2394138;0.8422151;-0.2107052;0.8634229;0;2.2;0.01991877;2.149437;
637945366903459018;1340.819;9;7;3;0.2;1.4;2299;1.30491518051327;0.4499513;2.036231;0.4508099;1.951578;-0.2394138;0.8422151;-0.2107052;0.8634229;
637945366913451275;1341.819;9;7;3;0.2;1.4;1000;3;-0.6062176;1.15;-0.6246064;1.082458;0.4499513;2.036231;0.4508099;1.951578;
637945366922443315;1342.718;9;7;3;0.2;1.4;899;3.33704115684093;0.6893654;1.621554;0.6700698;1.624168;-0.6062176;1.15;-0.6246064;1.082458;
637945366932435568;1343.717;9;7;3;0.2;1.4;999;3.003003003003;-0.6893655;1.621553;-0.6649866;1.637045;0.6893654;1.621554;0.6700698;1.624168;
637945366942441114;1344.717;9;7;3;0.2;1.4;1000;3;0.6062179;1.15;0.5488454;1.137471;-0.6893655;1.621553;-0.6649866;1.637045;
637945366962430337;1346.716;9;7;3;0.2;1.4;1999;1.50075037518759;-0.4499517;2.036231;-0.380656;2.018911;0.6062179;1.15;0.5488454;1.137471;
637945366973423713;1347.816;9;7;3;0.2;1.4;1099;2.72975432211101;0.2394144;0.8422153;0.272075;0.9124866;-0.4499517;2.036231;-0.380656;2.018911;
637945367005520975;1351.025;9;7;4.5;0.1;2.2;2010;2.23880597014925;-0.3762217;0.4663379;-0.3336281;0.4677134;0;2.6;0.03587551;2.596634;
637945367025515495;1353.024;9;7;4.5;0.1;2.2;1999;2.25112556278139;0.7070663;2.342649;0.6951147;2.338288;-0.3762217;0.4663379;-0.3336281;0.4677134;
637945367046500240;1355.123;9;7;4.5;0.1;2.2;2099;2.14387803716055;-0.9526277;0.9499994;-0.9204082;0.9652628;0.7070663;2.342649;0.6951147;2.338288;
637945367062493857;1356.723;9;7;4.5;0.1;2.2;1599;2.81425891181989;1.083289;1.691013;1.062655;1.666263;-0.9526277;0.9499994;-0.9204082;0.9652628;
637945367081478151;1358.622;9;7;4.5;0.1;2.2;1899;2.3696682464455;-1.083289;1.691012;-1.03929;1.685855;1.083289;1.691013;1.062655;1.666263;
637945367096691596;1360.15;9;7;4.5;0.1;2.2;1529;2.94310006540222;0.9526281;0.9500003;0.9482437;0.9137893;-1.083289;1.691012;-1.03929;1.685855;
637945367118466517;1362.32;9;7;4.5;0.1;2.2;2170;2.07373271889401;-0.7070671;2.342648;-0.672977;2.332225;0.9526281;0.9500003;0.9482437;0.9137893;
637945367134460133;1363.919;9;7;4.5;0.1;2.2;1599;2.81425891181989;0.3762226;0.4663382;0.3650422;0.4992355;-0.7070671;2.342648;-0.672977;2.332225;
637945367172548747;1367.729;9;7;2.5;0.3;1.4;2909;0.85940185630801;-0.2394138;0.8422151;-0.300523;0.940569;0;2.2;0.08173692;2.099927;
637945367180550557;1368.528;9;7;2.5;0.3;1.4;800;3.125;0.4499513;2.036231;0.4602864;2.044342;-0.2394138;0.8422151;-0.300523;0.940569;
637945367189542591;1369.428;9;7;2.5;0.3;1.4;900;2.77777777777778;-0.6062176;1.15;-0.7235478;1.173359;0.4499513;2.036231;0.4602864;2.044342;
637945367199544853;1370.427;9;7;2.5;0.3;1.4;1000;2.5;0.6893654;1.621554;0.618423;1.621634;-0.6062176;1.15;-0.7235478;1.173359;
637945367208536887;1371.327;9;7;2.5;0.3;1.4;900;2.77777777777778;-0.6893655;1.621553;-0.635241;1.589171;0.6893654;1.621554;0.618423;1.621634;
637945367218639173;1372.338;9;7;2.5;0.3;1.4;1011;2.47279920870425;0.6062179;1.15;0.5611532;1.189039;-0.6893655;1.621553;-0.635241;1.589171;
637945367226640984;1373.137;9;7;2.5;0.3;1.4;800;3.125;-0.4499517;2.036231;-0.4445122;2.062467;0.6062179;1.15;0.5611532;1.189039;
637945367247625728;1375.236;9;7;2.5;0.3;1.4;2099;1.19104335397808;0.2394144;0.8422153;0.1977921;0.8269291;-0.4499517;2.036231;-0.4445122;2.062467;
