637945225303844618;165.7778;6;0;3.5;0.2;2;1596;2.19298245614035;-0.3420197;0.5603072;-0.3117194;0.6003259;0;2.5;0.03710511;2.407518;
637945225354036945;170.7977;6;0;3.5;0.2;2;5020;0.697211155378486;0.6427875;2.266045;0.6251292;2.274932;-0.3420197;0.5603072;-0.3117194;0.6003259;
637945225370144737;172.4079;6;0;3.5;0.2;2;1610;2.17391304347826;-0.8660251;0.9999995;-0.7834415;1.054135;0.6427875;2.266045;0.6251292;2.274932;
637945225385236795;173.9279;6;0;3.5;0.2;2;1520;2.30263157894737;0.9848077;1.673648;0.8891607;1.693791;-0.8660251;0.9999995;-0.7834415;1.054135;
637945225397408945;175.1456;6;0;3.5;0.2;2;1218;2.8735632183908;-0.9848078;1.673648;-1.005613;1.76603;0.9848077;1.673648;0.8891607;1.693791;
637945225412891682;176.6828;6;0;3.5;0.2;2;1537;2.27716330513988;0.8660256;1;0.8311911;1.046484;-0.9848078;1.673648;-1.005613;1.76603;
637945225427889659;178.1828;6;0;3.5;0.2;2;1500;2.33333333333333;-0.6427882;2.266044;-0.5703351;2.236997;0.8660256;1;0.8311911;1.046484;
637945225440872413;179.4807;6;0;3.5;0.2;2;1298;2.69645608628659;0.3420205;0.5603075;0.2610569;0.5213529;-0.6427882;2.266044;-0.5703351;2.236997;
637945225483945389;183.791;6;0;4;0.1;1.4;2686;1.48920327624721;-0.2394138;0.8422151;-0.2380197;0.8152364;0;2.2;0.01205576;2.168406;
637945225494239458;184.831;6;0;4;0.1;1.4;1040;3.84615384615385;0.4499513;2.036231;0.401932;2.039421;-0.2394138;0.8422151;-0.2380197;0.8152364;
637945225509917457;186.3885;6;0;4;0.1;1.4;1557;2.56904303147078;-0.6062176;1.15;-0.5835615;1.176157;0.4499513;2.036231;0.401932;2.039421;
637945225527940644;188.1897;6;0;4;0.1;1.4;1801;2.22098833981122;0.6893654;1.621554;0.6642694;1.605673;-0.6062176;1.15;-0.5835615;1.176157;
637945225541017948;189.4958;6;0;4;0.1;1.4;1306;3.06278713629403;-0.6893655;1.621553;-0.7163856;1.645284;0.6893654;1.621554;0.6642694;1.605673;
637945225554450320;190.8519;6;0;4;0.1;1.4;1306;3.06278713629403;0.6062179;1.15;0.617233;1.138212;-0.6893655;1.621553;-0.7163856;1.645284;
637945225608976146;196.2925;6;0;4;0.1;1.4;5441;0.73515897812902;-0.4499517;2.036231;-0.4113238;2.062837;0.6062179;1.15;0.617233;1.138212;
637945225647145333;200.109;6;0;4;0.1;1.4;3456;1.15740740740741;0.2394144;0.8422153;0.2249359;0.8490443;-0.4499517;2.036231;-0.4113238;2.062837;
637945225676975228;203.0933;6;0;2.5;0.3;1.4;1346;1.85735512630015;-0.2394138;0.8422151;-0.2569848;0.8843082;0;2.2;0.03385473;2.337653;
637945225695968580;204.9923;6;0;2.5;0.3;1.4;1899;1.31648235913639;0.4499513;2.036231;0.4523065;2.029927;-0.2394138;0.8422151;-0.2569848;0.8843082;
637945225713001586;206.6941;6;0;2.5;0.3;1.4;1702;1.46886016451234;-0.6062176;1.15;-0.6349593;1.178655;0.4499513;2.036231;0.4523065;2.029927;
637945225727968224;208.1924;6;0;2.5;0.3;1.4;1498;1.66889185580774;0.6893654;1.621554;0.6154085;1.747011;-0.6062176;1.15;-0.6349593;1.178655;
637945225743966048;209.7923;6;0;2.5;0.3;1.4;1600;1.5625;-0.6893655;1.621553;-0.6697375;1.691386;0.6893654;1.621554;0.6154085;1.747011;
637945225757095288;211.1034;6;0;2.5;0.3;1.4;1311;1.906941266209;0.6062179;1.15;0.5306383;1.279562;-0.6893655;1.621553;-0.6697375;1.691386;
637945225774148302;212.8108;6;0;2.5;0.3;1.4;1707;1.46455770357352;-0.4499517;2.036231;-0.4087991;1.989169;0.6062179;1.15;0.5306383;1.279562;
637945225791986447;214.5936;6;0;2.5;0.3;1.4;1783;1.40213123948402;0.2394144;0.8422153;0.2930273;0.9792278;-0.4499517;2.036231;-0.4087991;1.989169;
637945225847016959;220.0956;6;0;4.5;0.1;2.2;2697;1.66852057842047;-0.3762217;0.4663379;-0.3627893;0.5044872;0;2.6;-0.03113179;2.609929;
637945225942082360;229.6041;6;0;4.5;0.1;2.2;9507;0.473335437046387;0.7070663;2.342649;0.6869201;2.361153;-0.3762217;0.4663379;-0.3627893;0.5044872;
637945225957170235;231.1132;6;0;4.5;0.1;2.2;1502;2.99600532623169;-0.9526277;0.9499994;-0.9506919;0.9995202;0.7070663;2.342649;0.6869201;2.361153;
637945225970162999;232.4027;6;0;4.5;0.1;2.2;1290;3.48837209302326;1.083289;1.691013;1.103108;1.72047;-0.9526277;0.9499994;-0.9506919;0.9995202;
637945225989483095;234.3549;6;0;4.5;0.1;2.2;1952;2.30532786885246;-1.083289;1.691012;-1.065058;1.725897;1.083289;1.691013;1.103108;1.72047;
637945226006734569;236.0802;6;0;4.5;0.1;2.2;1725;2.60869565217391;0.9526281;0.9500003;0.9939517;0.9607742;-1.083289;1.691012;-1.065058;1.725897;
637945226040246145;239.42;6;0;4.5;0.1;2.2;3340;1.34730538922156;-0.7070671;2.342648;-0.6875307;2.318918;0.9526281;0.9500003;0.9939517;0.9607742;
637945226110101367;246.406;6;0;4.5;0.1;2.2;6986;0.644145433724592;0.3762226;0.4663382;0.3674661;0.5131093;-0.7070671;2.342648;-0.6875307;2.318918;
637945226135530859;248.9598;6;0;1.5;1.1;2;1044;1.4367816091954;-0.3420197;0.5603072;-0.1746663;1.083236;0;2.5;0.07472479;2.42278;
637945226147323963;250.1277;6;0;1.5;1.1;2;1168;1.28424657534247;0.6427875;2.266045;0.4871014;2.077267;-0.3420197;0.5603072;-0.1746663;1.083236;
637945226164181934;251.814;6;0;1.5;1.1;2;1686;0.889679715302491;-0.8660251;0.9999995;-0.9965823;1.19585;0.6427875;2.266045;0.4871014;2.077267;
637945226183203556;253.715;6;0;1.5;1.1;2;1901;0.789058390320884;0.9848077;1.673648;0.678191;1.743691;-0.8660251;0.9999995;-0.9965823;1.19585;
637945226193175318;254.7134;6;0;1.5;1.1;2;998;1.50300601202405;-0.9848078;1.673648;-0.6939581;1.711805;0.9848077;1.673648;0.678191;1.743691;
637945226203272103;255.723;6;0;1.5;1.1;2;1010;1.48514851485149;0.8660256;1;0.9111693;1.46659;-0.9848078;1.673648;-0.6939581;1.711805;
637945226240384247;259.4342;6;0;1.5;1.1;2;3711;0.404203718674212;-0.6427882;2.266044;-0.3830856;2.359296;0.8660256;1;0.9111693;1.46659;
637945226261376856;261.5331;6;0;1.5;1.1;2;2099;0.714626012386851;0.3420205;0.5603075;0.1245516;0.6382835;-0.6427882;2.266044;-0.3830856;2.359296;
637945226299360237;265.3317;6;0;2;0.6;1.8;1610;1.24223602484472;-0.3078177;0.6542765;-0.3070685;0.9257604;0;2.4;-0.07542595;2.676485;
637945226314452905;266.841;6;0;2;0.6;1.8;1509;1.32538104705103;0.5785087;2.18944;0.4938499;2.094108;-0.3078177;0.6542765;-0.3070685;0.9257604;
637945226331019283;268.5085;6;0;2;0.6;1.8;1668;1.19904076738609;-0.7794226;1.05;-0.7103633;1.339706;0.5785087;2.18944;0.4938499;2.094108;
637945226345311805;269.9271;6;0;2;0.6;1.8;1419;1.40944326990839;0.8863269;1.656283;0.7623379;1.676389;-0.7794226;1.05;-0.7103633;1.339706;
637945226362349974;271.6284;6;0;2;0.6;1.8;1701;1.17577895355673;-0.8863271;1.656283;-0.9066573;1.914671;0.8863269;1.656283;0.7623379;1.676389;
637945226376413011;273.0371;6;0;2;0.6;1.8;1400;1.42857142857143;0.779423;1.05;0.6383647;1.269215;-0.8863271;1.656283;-0.9066573;1.914671;
637945226392385826;274.6347;6;0;2;0.6;1.8;1598;1.25156445556946;-0.5785094;2.18944;-0.4179998;2.266276;0.779423;1.05;0.6383647;1.269215;
637945226403412431;275.7372;6;0;2;0.6;1.8;1102;1.81488203266788;0.3078185;0.6542768;0.2169561;0.9325333;-0.5785094;2.18944;-0.4179998;2.266276;
637945226456408855;281.0345;6;0;3;0.2;1.4;2089;1.43609382479655;-0.2394138;0.8422151;-0.2340233;0.8329742;0;2.2;-0.0001172796;2.189251;
637945226482374335;283.6333;6;0;3;0.2;1.4;2599;1.15429011158138;0.4499513;2.036231;0.4665611;1.962448;-0.2394138;0.8422151;-0.2340233;0.8329742;
637945226500372658;285.4316;6;0;3;0.2;1.4;1798;1.66852057842047;-0.6062176;1.15;-0.5745913;1.179858;0.4499513;2.036231;0.4665611;1.962448;
637945226532341584;288.6296;6;0;3;0.2;1.4;3198;0.938086303939963;0.6893654;1.621554;0.6751109;1.688527;-0.6062176;1.15;-0.5745913;1.179858;
637945226553415475;290.7372;6;0;3;0.2;1.4;2106;1.42450142450142;-0.6893655;1.621553;-0.6173785;1.661615;0.6893654;1.621554;0.6751109;1.688527;
637945226577494726;293.1452;6;0;3;0.2;1.4;2408;1.24584717607973;0.6062179;1.15;0.6422182;1.208221;-0.6893655;1.621553;-0.6173785;1.661615;
637945226595417417;294.9375;6;0;3;0.2;1.4;1792;1.67410714285714;-0.4499517;2.036231;-0.4811678;1.978314;0.6062179;1.15;0.6422182;1.208221;
637945226610555091;296.4505;6;0;3;0.2;1.4;1513;1.98281559814937;0.2394144;0.8422153;0.159006;0.7986827;-0.4499517;2.036231;-0.4811678;1.978314;
637945227906079489;426.0027;6;1;2;0.6;1.8;1107;1.806684733514;-0.3078177;0.6542765;-0.3115432;0.8361138;0;2.4;0.02074687;2.49741;
637945227916944151;427.0895;6;1;2;0.6;1.8;1087;1.83992640294388;0.5785087;2.18944;0.3948433;2.323576;-0.3078177;0.6542765;-0.3115432;0.8361138;
637945227928564267;428.2621;6;1;2;0.6;1.8;1173;1.70502983802217;-0.7794226;1.05;-0.7219546;1.344333;0.5785087;2.18944;0.3948433;2.323576;
637945227955124158;430.9062;6;1;2;0.6;1.8;2644;0.75642965204236;0.8863269;1.656283;0.7515917;1.732366;-0.7794226;1.05;-0.7219546;1.344333;
637945227970065414;432.3933;6;1;2;0.6;1.8;1487;1.34498991257566;-0.8863271;1.656283;-0.7236605;1.716314;0.8863269;1.656283;0.7515917;1.732366;
637945227991109124;434.5045;6;1;2;0.6;1.8;2111;0.947418285172904;0.779423;1.05;0.759519;0.8701338;-0.8863271;1.656283;-0.7236605;1.716314;
637945228013954403;436.7909;6;1;2;0.6;1.8;2280;0.87719298245614;-0.5785094;2.18944;-0.5280532;2.078105;0.779423;1.05;0.759519;0.8701338;
637945228034068108;438.8021;6;1;2;0.6;1.8;1992;1.00401606425703;0.3078185;0.6542768;0.2700377;0.5880134;-0.5785094;2.18944;-0.5280532;2.078105;
637945228054991780;440.8944;6;1;3;0.2;1.4;1115;2.69058295964126;-0.2394138;0.8422151;-0.1873175;0.8727458;0;2.2;-0.07005814;2.157015;
637945228065544194;441.9445;6;1;3;0.2;1.4;1050;2.85714285714286;0.4499513;2.036231;0.4707716;1.980788;-0.2394138;0.8422151;-0.1873175;0.8727458;
637945228080041742;443.3993;6;1;3;0.2;1.4;1455;2.06185567010309;-0.6062176;1.15;-0.5265259;1.194417;0.4499513;2.036231;0.4707716;1.980788;
637945228102236856;445.619;6;1;3;0.2;1.4;2220;1.35135135135135;0.6893654;1.621554;0.7268963;1.641096;-0.6062176;1.15;-0.5265259;1.194417;
637945228129025734;448.298;6;1;3;0.2;1.4;2679;1.11982082866741;-0.6893655;1.621553;-0.6149547;1.63299;0.6893654;1.621554;0.7268963;1.641096;
637945228144993537;449.8943;6;1;3;0.2;1.4;1596;1.8796992481203;0.6062179;1.15;0.6248164;1.06662;-0.6893655;1.621553;-0.6149547;1.63299;
637945228177196217;453.1154;6;1;3;0.2;1.4;3210;0.934579439252336;-0.4499517;2.036231;-0.4215947;2.023564;0.6062179;1.15;0.6248164;1.06662;
637945228194104185;454.8058;6;1;3;0.2;1.4;1690;1.77514792899408;0.2394144;0.8422153;0.2346466;0.8890828;-0.4499517;2.036231;-0.4215947;2.023564;
637945228234334315;458.8287;6;1;4.5;0.1;2.2;2024;2.22332015810277;-0.3762217;0.4663379;-0.3374714;0.4970161;0;2.6;-0.003194921;2.569871;
637945228249616717;460.3682;6;1;4.5;0.1;2.2;1539;2.92397660818713;0.7070663;2.342649;0.743078;2.349223;-0.3762217;0.4663379;-0.3374714;0.4970161;
637945228269229817;462.3179;6;1;4.5;0.1;2.2;1947;2.31124807395994;-0.9526277;0.9499994;-0.9532266;0.9705698;0.7070663;2.342649;0.743078;2.349223;
637945228281146907;463.5101;6;1;4.5;0.1;2.2;1192;3.7751677852349;1.083289;1.691013;1.075862;1.695955;-0.9526277;0.9499994;-0.9532266;0.9705698;
637945228296609623;465.0676;6;1;4.5;0.1;2.2;1558;2.88831835686778;-1.083289;1.691012;-1.056211;1.649171;1.083289;1.691013;1.075862;1.695955;
637945228314244493;466.8196;6;1;4.5;0.1;2.2;1752;2.56849315068493;0.9526281;0.9500003;0.9794104;0.9482589;-1.083289;1.691012;-1.056211;1.649171;
637945228348115029;470.2072;6;1;4.5;0.1;2.2;3383;1.33018031333136;-0.7070671;2.342648;-0.6771511;2.370844;0.9526281;0.9500003;0.9794104;0.9482589;
637945228392203715;474.6155;6;1;4.5;0.1;2.2;4406;1.0213345438039;0.3762226;0.4663382;0.3529519;0.4497795;-0.7070671;2.342648;-0.6771511;2.370844;
637945228413192398;476.7149;6;1;1.5;1.1;2;1198;1.25208681135225;-0.3420197;0.5603072;-0.3100187;0.867411;0;2.5;0.1763812;2.206502;
637945228422175469;477.6129;6;1;1.5;1.1;2;898;1.67037861915367;0.6427875;2.266045;0.5612074;2.189958;-0.3420197;0.5603072;-0.3100187;0.867411;
637945228432309880;478.6254;6;1;1.5;1.1;2;1013;1.48075024679171;-0.8660251;0.9999995;-0.9995172;1.359018;0.6427875;2.266045;0.5612074;2.189958;
637945228442211623;479.6166;6;1;1.5;1.1;2;991;1.51362260343088;0.9848077;1.673648;1.015209;1.698958;-0.8660251;0.9999995;-0.9995172;1.359018;
637945228467295145;482.1248;6;1;1.5;1.1;2;2508;0.598086124401914;-0.9848078;1.673648;-0.6982539;1.674945;0.9848077;1.673648;1.015209;1.698958;
637945228479195853;483.3143;6;1;1.5;1.1;2;1189;1.26156433978133;0.8660256;1;0.8709213;1.222903;-0.9848078;1.673648;-0.6982539;1.674945;
637945228503279189;485.7231;6;1;1.5;1.1;2;2409;0.62266500622665;-0.6427882;2.266044;-0.6684522;2.470134;0.8660256;1;0.8709213;1.222903;
637945228518251815;487.2206;6;1;1.5;1.1;2;1498;1.00133511348465;0.3420205;0.5603075;0.2586558;0.7432488;-0.6427882;2.266044;-0.6684522;2.470134;
637945228555230685;490.9189;6;1;4;0.1;1.4;1402;2.85306704707561;-0.2394138;0.8422151;-0.2536079;0.8114403;0;2.2;-0.005044194;2.211187;
637945228577342270;493.1288;6;1;4;0.1;1.4;2206;1.81323662737987;0.4499513;2.036231;0.456722;2.001618;-0.2394138;0.8422151;-0.2536079;0.8114403;
637945228592324894;494.6279;6;1;4;0.1;1.4;1499;2.66844563042028;-0.6062176;1.15;-0.5877222;1.126463;0.4499513;2.036231;0.456722;2.001618;
637945228611206073;496.5158;6;1;4;0.1;1.4;1888;2.11864406779661;0.6893654;1.621554;0.6880193;1.586524;-0.6062176;1.15;-0.5877222;1.126463;
637945228629199229;498.3157;6;1;4;0.1;1.4;1800;2.22222222222222;-0.6893655;1.621553;-0.691493;1.592097;0.6893654;1.621554;0.6880193;1.586524;
637945228646827324;500.0892;6;1;4;0.1;1.4;1752;2.28310502283105;0.6062179;1.15;0.5775682;1.112427;-0.6893655;1.621553;-0.691493;1.592097;
637945228692285960;504.6234;6;1;4;0.1;1.4;4534;0.882223202470225;-0.4499517;2.036231;-0.4451269;2.031502;0.6062179;1.15;0.5775682;1.112427;
637945228708728850;506.2791;6;1;4;0.1;1.4;1656;2.41545893719807;0.2394144;0.8422153;0.2245166;0.8890289;-0.4499517;2.036231;-0.4451269;2.031502;
637945228750278738;510.423;6;1;3.5;0.2;2;1977;1.77035912999494;-0.3420197;0.5603072;-0.3304989;0.6068031;0;2.5;0.05350564;2.435827;
637945228763831116;511.7896;6;1;3.5;0.2;2;1367;2.56035113386979;0.6427875;2.266045;0.7239948;2.301485;-0.3420197;0.5603072;-0.3304989;0.6068031;
637945228776353515;513.0305;6;1;3.5;0.2;2;1241;2.82030620467365;-0.8660251;0.9999995;-0.8048871;1.050666;0.6427875;2.266045;0.7239948;2.301485;
637945228786455292;514.041;6;1;3.5;0.2;2;1010;3.46534653465347;0.9848077;1.673648;1.01208;1.629204;-0.8660251;0.9999995;-0.8048871;1.050666;
637945228798455359;515.2408;6;1;3.5;0.2;2;1200;2.91666666666667;-0.9848078;1.673648;-0.8998904;1.669954;0.9848077;1.673648;1.01208;1.629204;
637945228813382974;516.734;6;1;3.5;0.2;2;1493;2.34427327528466;0.8660256;1;0.7995677;1.023101;-0.9848078;1.673648;-0.8998904;1.669954;
637945228829316011;518.3267;6;1;3.5;0.2;2;1593;2.19711236660389;-0.6427882;2.266044;-0.615768;2.323404;0.8660256;1;0.7995677;1.023101;
637945228863524433;521.7479;6;1;3.5;0.2;2;3421;1.02309266296405;0.3420205;0.5603075;0.2878675;0.6163198;-0.6427882;2.266044;-0.615768;2.323404;
637945228886542350;524.0486;6;1;2.5;0.3;1.4;1200;2.08333333333333;-0.2394138;0.8422151;-0.1861946;0.9222977;0;2.2;-0.006891049;2.258697;
637945228902451842;525.6382;6;1;2.5;0.3;1.4;1590;1.57232704402516;0.4499513;2.036231;0.3548006;1.988151;-0.2394138;0.8422151;-0.1861946;0.9222977;
637945228930414071;528.4349;6;1;2.5;0.3;1.4;2797;0.893814801573114;-0.6062176;1.15;-0.5596856;1.128342;0.4499513;2.036231;0.3548006;1.988151;
637945228946945401;530.1012;6;1;2.5;0.3;1.4;1666;1.50060024009604;0.6893654;1.621554;0.7452309;1.751054;-0.6062176;1.15;-0.5596856;1.128342;
637945228959597618;531.3546;6;1;2.5;0.3;1.4;1253;1.9952114924182;-0.6893655;1.621553;-0.7872288;1.713386;0.6893654;1.621554;0.7452309;1.751054;
637945228968934258;532.2998;6;1;2.5;0.3;1.4;945;2.64550264550265;0.6062179;1.15;0.5253012;1.275548;-0.6893655;1.621553;-0.7872288;1.713386;
637945228979581127;533.3535;6;1;2.5;0.3;1.4;1054;2.3719165085389;-0.4499517;2.036231;-0.4076225;1.929766;0.6062179;1.15;0.5253012;1.275548;
637945228998459442;535.2413;6;1;2.5;0.3;1.4;1888;1.32415254237288;0.2394144;0.8422153;0.2341387;0.8688532;-0.4499517;2.036231;-0.4076225;1.929766;
637945230046836804;640.079;6;2;3.5;0.2;2;3088;1.13341968911917;-0.3420197;0.5603072;-0.3293936;0.5374361;0;2.5;-0.01286272;2.439651;
637945230059935748;641.3884;6;2;3.5;0.2;2;1309;2.67379679144385;0.6427875;2.266045;0.6164629;2.214497;-0.3420197;0.5603072;-0.3293936;0.5374361;
637945230072711787;642.6777;6;2;3.5;0.2;2;1289;2.71528316524438;-0.8660251;0.9999995;-0.7793585;1.024936;0.6427875;2.266045;0.6164629;2.214497;
637945230087730827;644.1793;6;2;3.5;0.2;2;1502;2.33022636484687;0.9848077;1.673648;0.9567892;1.767707;-0.8660251;0.9999995;-0.7793585;1.024936;
637945230111147260;646.5098;6;2;3.5;0.2;2;2331;1.5015015015015;-0.9848078;1.673648;-0.9223579;1.695487;0.9848077;1.673648;0.9567892;1.767707;
637945230128475302;648.2542;6;2;3.5;0.2;2;1744;2.00688073394495;0.8660256;1;0.8839629;0.9146907;-0.9848078;1.673648;-0.9223579;1.695487;
637945230145023206;649.8976;6;2;3.5;0.2;2;1640;2.13414634146341;-0.6427882;2.266044;-0.6178698;2.217546;0.8660256;1;0.8839629;0.9146907;
637945230164026537;651.7958;6;2;3.5;0.2;2;1898;1.84404636459431;0.3420205;0.5603075;0.3592405;0.5694087;-0.6427882;2.266044;-0.6178698;2.217546;
637945230210521344;656.4583;6;2;4;0.1;1.4;2927;1.36658694909464;-0.2394138;0.8422151;-0.2547376;0.8042454;0;2.2;-0.01794279;2.156457;
637945230223088548;657.7041;6;2;4;0.1;1.4;1246;3.21027287319422;0.4499513;2.036231;0.488898;2.06383;-0.2394138;0.8422151;-0.2547376;0.8042454;
637945230241112371;659.5049;6;2;4;0.1;1.4;1801;2.22098833981122;-0.6062176;1.15;-0.6078301;1.11316;0.4499513;2.036231;0.488898;2.06383;
637945230288157473;664.2112;6;2;4;0.1;1.4;4706;0.849978750531237;0.6893654;1.621554;0.7103989;1.616884;-0.6062176;1.15;-0.6078301;1.11316;
637945230306195640;666.0133;6;2;4;0.1;1.4;1802;2.21975582685905;-0.6893655;1.621553;-0.6903303;1.657629;0.6893654;1.621554;0.7103989;1.616884;
637945230327175301;668.1115;6;2;4;0.1;1.4;2098;1.90657769304099;0.6062179;1.15;0.5950869;1.178484;-0.6893655;1.621553;-0.6903303;1.657629;
637945230344247021;669.8199;6;2;4;0.1;1.4;1704;2.34741784037559;-0.4499517;2.036231;-0.482018;2.04403;0.6062179;1.15;0.5950869;1.178484;
637945230363167750;671.7095;6;2;4;0.1;1.4;1877;2.13106020245072;0.2394144;0.8422153;0.2116504;0.8259896;-0.4499517;2.036231;-0.482018;2.04403;
637945230381652544;673.5713;6;2;1.5;1.1;2;953;1.57397691500525;-0.3420197;0.5603072;-0.1980488;1.059239;0;2.5;0.06361461;2.203815;
637945230393344599;674.7291;6;2;1.5;1.1;2;1158;1.29533678756477;0.6427875;2.266045;0.4919052;2.265211;-0.3420197;0.5603072;-0.1980488;1.059239;
637945230408167201;676.2121;6;2;1.5;1.1;2;1483;1.01146325016858;-0.8660251;0.9999995;-0.6302093;1.269567;0.6427875;2.266045;0.4919052;2.265211;
637945230418721960;677.279;6;2;1.5;1.1;2;1067;1.4058106841612;0.9848077;1.673648;0.5462221;2.004284;-0.8660251;0.9999995;-0.6302093;1.269567;
637945230430158970;678.4117;6;2;1.5;1.1;2;1133;1.32391879964696;-0.9848078;1.673648;-0.6303439;1.772193;0.9848077;1.673648;0.5462221;2.004284;
637945230460187036;681.4141;6;2;1.5;1.1;2;2972;0.50471063257066;0.8660256;1;0.8210285;1.204975;-0.9848078;1.673648;-0.6303439;1.772193;
637945230476293172;683.0243;6;2;1.5;1.1;2;1606;0.933997509339975;-0.6427882;2.266044;-0.4524312;2.146312;0.8660256;1;0.8210285;1.204975;
637945230492435998;684.6375;6;2;1.5;1.1;2;1608;0.932835820895522;0.3420205;0.5603075;0.1980271;1.001098;-0.6427882;2.266044;-0.4524312;2.146312;
637945230515295490;686.9247;6;2;2.5;0.3;1.4;1201;2.08159866777685;-0.2394138;0.8422151;-0.2500665;0.8531554;0;2.2;0.07580219;2.124278;
637945230524881129;687.8941;6;2;2.5;0.3;1.4;969;2.57997936016512;0.4499513;2.036231;0.3146729;2.00157;-0.2394138;0.8422151;-0.2500665;0.8531554;
637945230544249791;689.8206;6;2;2.5;0.3;1.4;1926;1.29802699896158;-0.6062176;1.15;-0.5215865;1.176494;0.4499513;2.036231;0.3146729;2.00157;
637945230558387274;691.2328;6;2;2.5;0.3;1.4;1412;1.77053824362606;0.6893654;1.621554;0.691131;1.664653;-0.6062176;1.15;-0.5215865;1.176494;
637945230576251721;693.0201;6;2;2.5;0.3;1.4;1787;1.39899272523783;-0.6893655;1.621553;-0.6161008;1.636177;0.6893654;1.621554;0.691131;1.664653;
637945230587243637;694.1194;6;2;2.5;0.3;1.4;1099;2.27479526842584;0.6062179;1.15;0.483302;1.235103;-0.6893655;1.621553;-0.6161008;1.636177;
637945230596245216;695.0195;6;2;2.5;0.3;1.4;900;2.77777777777778;-0.4499517;2.036231;-0.4606633;1.973397;0.6062179;1.15;0.483302;1.235103;
637945230607237145;696.1185;6;2;2.5;0.3;1.4;1097;2.27894257064722;0.2394144;0.8422153;0.2731286;0.9219259;-0.4499517;2.036231;-0.4606633;1.973397;
637945230629281015;698.3214;6;2;2;0.6;1.8;982;2.03665987780041;-0.3078177;0.6542765;-0.2901382;0.9096596;0;2.4;-0.03372807;2.247513;
637945230642438325;699.639;6;2;2;0.6;1.8;1318;1.51745068285281;0.5785087;2.18944;0.6519996;2.225121;-0.3078177;0.6542765;-0.2901382;0.9096596;
637945230654317490;700.8267;6;2;2;0.6;1.8;1188;1.68350168350168;-0.7794226;1.05;-0.7732562;1.085325;0.5785087;2.18944;0.6519996;2.225121;
637945230666324859;702.0275;6;2;2;0.6;1.8;1201;1.66527893422148;0.8863269;1.656283;1.119148;1.691725;-0.7794226;1.05;-0.7732562;1.085325;
637945230675421456;702.9374;6;2;2;0.6;1.8;896;2.23214285714286;-0.8863271;1.656283;-0.6101044;1.75519;0.8863269;1.656283;1.119148;1.691725;
637945230694282788;704.8236;6;2;2;0.6;1.8;1886;1.06044538706257;0.779423;1.05;0.6681319;1.109978;-0.8863271;1.656283;-0.6101044;1.75519;
637945230703556131;705.7504;6;2;2;0.6;1.8;927;2.15749730312837;-0.5785094;2.18944;-0.5645976;1.997737;0.779423;1.05;0.6681319;1.109978;
637945230714283009;706.8236;6;2;2;0.6;1.8;1073;1.86393289841566;0.3078185;0.6542768;0.1988564;0.8358375;-0.5785094;2.18944;-0.5645976;1.997737;
637945230740277573;709.4229;6;2;3;0.2;1.4;1400;2.14285714285714;-0.2394138;0.8422151;-0.2144494;0.8913947;0;2.2;-0.02724859;2.206648;
637945230757285766;711.1234;6;2;3;0.2;1.4;1701;1.7636684303351;0.4499513;2.036231;0.4618264;2.026815;-0.2394138;0.8422151;-0.2144494;0.8913947;
637945230773387294;712.7339;6;2;3;0.2;1.4;1610;1.86335403726708;-0.6062176;1.15;-0.58746;1.166083;0.4499513;2.036231;0.4618264;2.026815;
637945230790513277;714.4439;6;2;3;0.2;1.4;1671;1.79533213644524;0.6893654;1.621554;0.5978453;1.582109;-0.6062176;1.15;-0.58746;1.166083;
637945230834657829;718.8718;6;2;3;0.2;1.4;4428;0.677506775067751;-0.6893655;1.621553;-0.6925104;1.544519;0.6893654;1.621554;0.5978453;1.582109;
637945230857326971;721.1277;6;2;3;0.2;1.4;2256;1.32978723404255;0.6062179;1.15;0.608179;1.145558;-0.6893655;1.621553;-0.6925104;1.544519;
637945230893421196;724.7377;6;2;3;0.2;1.4;3610;0.831024930747922;-0.4499517;2.036231;-0.444469;2.027408;0.6062179;1.15;0.608179;1.145558;
637945230910545025;726.449;6;2;3;0.2;1.4;1711;1.75336060783168;0.2394144;0.8422153;0.2182701;0.9099184;-0.4499517;2.036231;-0.444469;2.027408;
637945230945416144;729.9368;6;2;4.5;0.1;2.2;1781;2.52667040988209;-0.3762217;0.4663379;-0.373549;0.4936824;0;2.6;0.03509255;2.608891;
637945230959398599;731.3355;6;2;4.5;0.1;2.2;1399;3.21658327376698;0.7070663;2.342649;0.7193151;2.362041;-0.3762217;0.4663379;-0.373549;0.4936824;
637945230983068064;733.7131;6;2;4.5;0.1;2.2;2375;1.89473684210526;-0.9526277;0.9499994;-0.9063846;0.9674447;0.7070663;2.342649;0.7193151;2.362041;
637945230997378108;735.1332;6;2;4.5;0.1;2.2;1420;3.16901408450704;1.083289;1.691013;1.083407;1.668254;-0.9526277;0.9499994;-0.9063846;0.9674447;
637945231008395201;736.2327;6;2;4.5;0.1;2.2;1099;4.09463148316652;-1.083289;1.691012;-1.071902;1.736446;1.083289;1.691013;1.083407;1.668254;
637945231024606734;737.8553;6;2;4.5;0.1;2.2;1623;2.77264325323475;0.9526281;0.9500003;0.9583592;0.9193544;-1.083289;1.691012;-1.071902;1.736446;
637945231038462329;739.2413;6;2;4.5;0.1;2.2;1386;3.24675324675325;-0.7070671;2.342648;-0.6789261;2.340568;0.9526281;0.9500003;0.9583592;0.9193544;
637945231050806248;740.4866;6;2;4.5;0.1;2.2;1245;3.6144578313253;0.3762226;0.4663382;0.3581425;0.5093583;-0.7070671;2.342648;-0.6789261;2.340568;
637945231941911975;829.5859;6;3;2.5;0.3;1.4;950;2.63157894736842;-0.2394138;0.8422151;-0.2721691;0.8060365;0;2.2;0.03319158;2.3321;
637945231953028924;830.6964;6;3;2.5;0.3;1.4;1110;2.25225225225225;0.4499513;2.036231;0.446971;2.137323;-0.2394138;0.8422151;-0.2721691;0.8060365;
637945231994001923;834.7948;6;3;2.5;0.3;1.4;4098;0.610053684724256;-0.6062176;1.15;-0.5334917;1.064197;0.4499513;2.036231;0.446971;2.137323;
637945232004878837;835.8829;6;3;2.5;0.3;1.4;1088;2.29779411764706;0.6893654;1.621554;0.6724622;1.67145;-0.6062176;1.15;-0.5334917;1.064197;
637945232019137081;837.3068;6;3;2.5;0.3;1.4;1424;1.75561797752809;-0.6893655;1.621553;-0.7058246;1.546753;0.6893654;1.621554;0.6724622;1.67145;
637945232030894149;838.4815;6;3;2.5;0.3;1.4;1175;2.12765957446809;0.6062179;1.15;0.6290761;1.215462;-0.6893655;1.621553;-0.7058246;1.546753;
637945232046017246;839.9966;6;3;2.5;0.3;1.4;1515;1.65016501650165;-0.4499517;2.036231;-0.3912418;2.017036;0.6062179;1.15;0.6290761;1.215462;
637945232060775178;841.4721;6;3;2.5;0.3;1.4;1459;1.71350239890336;0.2394144;0.8422153;0.2047542;0.8806261;-0.4499517;2.036231;-0.3912418;2.017036;
637945232085313556;843.9373;6;3;4;0.1;1.4;1446;2.76625172890733;-0.2394138;0.8422151;-0.2434737;0.8091739;0;2.2;0.03693482;2.183572;
637945232112912104;846.6854;6;3;4;0.1;1.4;2748;1.45560407569141;0.4499513;2.036231;0.4516704;2.078337;-0.2394138;0.8422151;-0.2434737;0.8091739;
637945232126147147;848.0101;6;3;4;0.1;1.4;1325;3.0188679245283;-0.6062176;1.15;-0.6371164;1.161821;0.4499513;2.036231;0.4516704;2.078337;
637945232182018633;853.5969;6;3;4;0.1;1.4;5582;0.716589036187746;0.6893654;1.621554;0.6865661;1.610847;-0.6062176;1.15;-0.6371164;1.161821;
637945232227103988;858.1056;6;3;4;0.1;1.4;4455;0.897867564534231;-0.6893655;1.621553;-0.7000049;1.625526;0.6893654;1.621554;0.6865661;1.610847;
637945232244002179;859.7944;6;3;4;0.1;1.4;1676;2.38663484486874;0.6062179;1.15;0.6236777;1.122512;-0.6893655;1.621553;-0.7000049;1.625526;
637945232266027205;861.9976;6;3;4;0.1;1.4;2203;1.81570585565138;-0.4499517;2.036231;-0.427222;2.062428;0.6062179;1.15;0.6236777;1.122512;
637945232289224084;864.3168;6;3;4;0.1;1.4;2314;1.7286084701815;0.2394144;0.8422153;0.2525494;0.8479632;-0.4499517;2.036231;-0.427222;2.062428;
637945232308447434;866.2506;6;3;2;0.6;1.8;979;2.04290091930541;-0.3078177;0.6542765;-0.2110892;0.9214188;0;2.4;0.09307147;2.119757;
637945232320074474;867.4023;6;3;2;0.6;1.8;1152;1.73611111111111;0.5785087;2.18944;0.527969;2.14697;-0.3078177;0.6542765;-0.2110892;0.9214188;
637945232329046052;868.3;6;3;2;0.6;1.8;898;2.2271714922049;-0.7794226;1.05;-0.8029416;1.269485;0.5785087;2.18944;0.527969;2.14697;
637945232336512360;869.0576;6;3;2;0.6;1.8;758;2.63852242744063;0.8863269;1.656283;0.6243161;1.511708;-0.7794226;1.05;-0.8029416;1.269485;
637945232345113027;869.902;6;3;2;0.6;1.8;844;2.3696682464455;-0.8863271;1.656283;-0.7855201;1.644338;0.8863269;1.656283;0.6243161;1.511708;
637945232354267846;870.8215;6;3;2;0.6;1.8;919;2.17627856365615;0.779423;1.05;0.7717744;1.190036;-0.8863271;1.656283;-0.7855201;1.644338;
637945232366143188;872.0095;6;3;2;0.6;1.8;1188;1.68350168350168;-0.5785094;2.18944;-0.4746436;2.002737;0.779423;1.05;0.7717744;1.190036;
637945232384136346;873.8088;6;3;2;0.6;1.8;1799;1.11172873818788;0.3078185;0.6542768;0.3037274;0.8415376;-0.5785094;2.18944;-0.4746436;2.002737;
637945232418118211;877.2072;6;3;3.5;0.2;2;1785;1.96078431372549;-0.3420197;0.5603072;-0.3043026;0.5990032;0;2.5;0.03971754;2.493114;
637945232439118574;879.3074;6;3;3.5;0.2;2;2100;1.66666666666667;0.6427875;2.266045;0.6062973;2.253188;-0.3420197;0.5603072;-0.3043026;0.5990032;
637945232457136659;881.1071;6;3;3.5;0.2;2;1800;1.94444444444444;-0.8660251;0.9999995;-0.8277828;1.033545;0.6427875;2.266045;0.6062973;2.253188;
637945232480092216;883.4044;6;3;3.5;0.2;2;2297;1.52372659991293;0.9848077;1.673648;0.9739248;1.661864;-0.8660251;0.9999995;-0.8277828;1.033545;
637945232497155507;885.1101;6;3;3.5;0.2;2;1706;2.05158264947245;-0.9848078;1.673648;-0.9061581;1.688183;0.9848077;1.673648;0.9739248;1.661864;
637945232512084461;886.604;6;3;3.5;0.2;2;1494;2.34270414993307;0.8660256;1;0.8984995;1.037307;-0.9848078;1.673648;-0.9061581;1.688183;
637945232525181761;887.9129;6;3;3.5;0.2;2;1309;2.67379679144385;-0.6427882;2.266044;-0.5835385;2.230864;0.8660256;1;0.8984995;1.037307;
637945232547304702;890.1251;6;3;3.5;0.2;2;2212;1.58227848101266;0.3420205;0.5603075;0.379576;0.6382633;-0.6427882;2.266044;-0.5835385;2.230864;
637945232600419914;895.4364;6;3;4.5;0.1;2.2;3730;1.20643431635389;-0.3762217;0.4663379;-0.392206;0.4747336;0;2.6;0.02386233;2.558367;
637945232623239100;897.7191;6;3;4.5;0.1;2.2;2270;1.98237885462555;0.7070663;2.342649;0.6933253;2.350847;-0.3762217;0.4663379;-0.392206;0.4747336;
637945232634767049;898.8829;6;3;4.5;0.1;2.2;1162;3.87263339070568;-0.9526277;0.9499994;-0.9220582;0.9361508;0.7070663;2.342649;0.6933253;2.350847;
637945232654115634;900.8066;6;3;4.5;0.1;2.2;1924;2.33887733887734;1.083289;1.691013;1.116066;1.708176;-0.9526277;0.9499994;-0.9220582;0.9361508;
637945232670148446;902.4099;6;3;4.5;0.1;2.2;1603;2.80723643169058;-1.083289;1.691012;-1.088146;1.670242;1.083289;1.691013;1.116066;1.708176;
637945232723296913;907.7247;6;3;4.5;0.1;2.2;5315;0.846660395108184;0.9526281;0.9500003;0.9366458;0.9971326;-1.083289;1.691012;-1.088146;1.670242;
637945232741292541;909.5244;6;3;4.5;0.1;2.2;1786;2.51959686450168;-0.7070671;2.342648;-0.6749824;2.32607;0.9526281;0.9500003;0.9366458;0.9971326;
637945232762836328;911.6896;6;3;4.5;0.1;2.2;2164;2.07948243992606;0.3762226;0.4663382;0.3555068;0.5117326;-0.7070671;2.342648;-0.6749824;2.32607;
637945232790392438;914.4343;6;3;3;0.2;1.4;1204;2.49169435215947;-0.2394138;0.8422151;-0.1891276;0.8302802;0;2.2;-0.05371884;2.203401;
637945232806585507;916.0529;6;3;3;0.2;1.4;1619;1.85299567634342;0.4499513;2.036231;0.4883226;2.071251;-0.2394138;0.8422151;-0.1891276;0.8302802;
637945232819387945;917.334;6;3;3;0.2;1.4;1281;2.34192037470726;-0.6062176;1.15;-0.6006567;1.153121;0.4499513;2.036231;0.4883226;2.071251;
637945232847297849;920.1243;6;3;3;0.2;1.4;2790;1.0752688172043;0.6893654;1.621554;0.667231;1.670513;-0.6062176;1.15;-0.6006567;1.153121;
637945232860485323;921.4423;6;3;3;0.2;1.4;1308;2.29357798165138;-0.6893655;1.621553;-0.6685008;1.606358;0.6893654;1.621554;0.667231;1.670513;
637945232878343464;923.229;6;3;3;0.2;1.4;1787;1.67879127028539;0.6062179;1.15;0.5567681;1.12674;-0.6893655;1.621553;-0.6685008;1.606358;
637945232890333095;924.4276;6;3;3;0.2;1.4;1193;2.51466890192791;-0.4499517;2.036231;-0.484852;2.046042;0.6062179;1.15;0.5567681;1.12674;
637945232904329806;925.8276;6;3;3;0.2;1.4;1400;2.14285714285714;0.2394144;0.8422153;0.2148446;0.9197422;-0.4499517;2.036231;-0.484852;2.046042;
637945232925429172;927.9379;6;3;1.5;1.1;2;1011;1.48367952522255;-0.3420197;0.5603072;-0.2700967;1.062768;0;2.5;0.0686408;2.265847;
637945232934460751;928.8393;6;3;1.5;1.1;2;901;1.66481687014428;0.6427875;2.266045;0.5948359;1.892404;-0.3420197;0.5603072;-0.2700967;1.062768;
637945232942447158;929.6387;6;3;1.5;1.1;2;799;1.87734668335419;-0.8660251;0.9999995;-0.5231622;1.417475;0.6427875;2.266045;0.5948359;1.892404;
637945232953418233;930.737;6;3;1.5;1.1;2;1098;1.36612021857923;0.9848077;1.673648;0.7789012;1.599843;-0.8660251;0.9999995;-0.5231622;1.417475;
637945232964419787;931.8368;6;3;1.5;1.1;2;1100;1.36363636363636;-0.9848078;1.673648;-0.7859473;1.564187;0.9848077;1.673648;0.7789012;1.599843;
637945232974416545;932.8367;6;3;1.5;1.1;2;1000;1.5;0.8660256;1;0.6901155;1.456837;-0.9848078;1.673648;-0.7859473;1.564187;
637945232984443306;933.8371;6;3;1.5;1.1;2;1000;1.5;-0.6427882;2.266044;-0.5723702;2.305325;0.8660256;1;0.6901155;1.456837;
637945232994410053;934.8359;6;3;1.5;1.1;2;999;1.5015015015015;0.3420205;0.5603075;0.4058044;1.094085;-0.6427882;2.266044;-0.5723702;2.305325;
637945234371966921;1072.589;6;4;4.5;0.1;2.2;1371;3.28227571115974;-0.3762217;0.4663379;-0.3789164;0.5153927;0;2.6;-0.0125252;2.633389;
637945234380848479;1073.477;6;4;4.5;0.1;2.2;889;5.06186726659168;0.7070663;2.342649;0.6869425;2.329314;-0.3762217;0.4663379;-0.3789164;0.5153927;
637945234395956133;1074.988;6;4;4.5;0.1;2.2;1511;2.97816015883521;-0.9526277;0.9499994;-0.9495086;0.9563932;0.7070663;2.342649;0.6869425;2.329314;
637945234425476315;1077.951;6;4;4.5;0.1;2.2;2963;1.5187310158623;1.083289;1.691013;1.126934;1.686193;-0.9526277;0.9499994;-0.9495086;0.9563932;
637945234436823303;1079.075;6;4;4.5;0.1;2.2;1124;4.00355871886121;-1.083289;1.691012;-1.083065;1.695126;1.083289;1.691013;1.126934;1.686193;
637945234448825411;1080.275;6;4;4.5;0.1;2.2;1200;3.75;0.9526281;0.9500003;0.9406899;0.9760715;-1.083289;1.691012;-1.083065;1.695126;
637945234479945876;1083.386;6;4;4.5;0.1;2.2;3111;1.44648023143684;-0.7070671;2.342648;-0.6970073;2.31552;0.9526281;0.9500003;0.9406899;0.9760715;
637945234491192849;1084.522;6;4;4.5;0.1;2.2;1135;3.9647577092511;0.3762226;0.4663382;0.3338121;0.489589;-0.7070671;2.342648;-0.6970073;2.31552;
637945234507895787;1086.182;6;4;2.5;0.3;1.4;910;2.74725274725275;-0.2394138;0.8422151;-0.2584497;0.7984833;0;2.2;0.1038575;2.114993;
637945234514511942;1086.855;6;4;2.5;0.3;1.4;673;3.7147102526003;0.4499513;2.036231;0.3208269;2.111762;-0.2394138;0.8422151;-0.2584497;0.7984833;
637945234536810859;1089.073;6;4;2.5;0.3;1.4;2218;1.12714156898106;-0.6062176;1.15;-0.5473568;1.270715;0.4499513;2.036231;0.3208269;2.111762;
637945234548222861;1090.225;6;4;2.5;0.3;1.4;1152;2.17013888888889;0.6893654;1.621554;0.5938298;1.735834;-0.6062176;1.15;-0.5473568;1.270715;
637945234561875263;1091.582;6;4;2.5;0.3;1.4;1356;1.84365781710914;-0.6893655;1.621553;-0.7188984;1.596153;0.6893654;1.621554;0.5938298;1.735834;
637945234597826566;1095.178;6;4;2.5;0.3;1.4;3596;0.695216907675195;0.6062179;1.15;0.5493402;1.14632;-0.6893655;1.621553;-0.7188984;1.596153;
637945234609863894;1096.381;6;4;2.5;0.3;1.4;1203;2.07813798836243;-0.4499517;2.036231;-0.3532144;2.087641;0.6062179;1.15;0.5493402;1.14632;
637945234622451104;1097.651;6;4;2.5;0.3;1.4;1269;1.97005516154452;0.2394144;0.8422153;0.2053881;0.7223628;-0.4499517;2.036231;-0.3532144;2.087641;
637945234648919576;1100.286;6;4;4;0.1;1.4;1633;2.44947948560931;-0.2394138;0.8422151;-0.2216596;0.8311274;0;2.2;0.03766606;2.169908;
637945234665893894;1101.983;6;4;4;0.1;1.4;1697;2.35710076605775;0.4499513;2.036231;0.440457;2.038129;-0.2394138;0.8422151;-0.2216596;0.8311274;
637945234680895528;1103.484;6;4;4;0.1;1.4;1501;2.66489007328448;-0.6062176;1.15;-0.5596253;1.161332;0.4499513;2.036231;0.440457;2.038129;
637945234699993879;1105.394;6;4;4;0.1;1.4;1910;2.09424083769634;0.6893654;1.621554;0.6568976;1.592985;-0.6062176;1.15;-0.5596253;1.161332;
637945234756972605;1111.091;6;4;4;0.1;1.4;5697;0.70212392487274;-0.6893655;1.621553;-0.6786402;1.632942;0.6893654;1.621554;0.6568976;1.592985;
637945234780964294;1113.49;6;4;4;0.1;1.4;2399;1.66736140058358;0.6062179;1.15;0.6320477;1.151185;-0.6893655;1.621553;-0.6786402;1.632942;
637945234799966582;1115.392;6;4;4;0.1;1.4;1884;2.12314225053079;-0.4499517;2.036231;-0.475642;1.994823;0.6062179;1.15;0.6320477;1.151185;
637945234831933466;1118.588;6;4;4;0.1;1.4;3197;1.25117297466375;0.2394144;0.8422153;0.2425369;0.8689394;-0.4499517;2.036231;-0.475642;1.994823;
637945234853986285;1120.793;6;4;1.5;1.1;2;1193;1.25733445096396;-0.3420197;0.5603072;-0.2271529;0.9702485;0;2.5;0.08718712;2.375173;
637945234863403118;1121.746;6;4;1.5;1.1;2;953;1.57397691500525;0.6427875;2.266045;0.3635539;1.826189;-0.3420197;0.5603072;-0.2271529;0.9702485;
637945234870974626;1122.492;6;4;1.5;1.1;2;746;2.01072386058981;-0.8660251;0.9999995;-0.6608214;1.455036;0.6427875;2.266045;0.3635539;1.826189;
637945234887098896;1124.105;6;4;1.5;1.1;2;1608;0.932835820895522;0.9848077;1.673648;1.017465;1.596444;-0.8660251;0.9999995;-0.6608214;1.455036;
637945234893680050;1124.774;6;4;1.5;1.1;2;670;2.23880597014925;-0.9848078;1.673648;-0.4578984;1.717461;0.9848077;1.673648;1.017465;1.596444;
637945234903010098;1125.696;6;4;1.5;1.1;2;921;1.62866449511401;0.8660256;1;0.5543984;1.403973;-0.9848078;1.673648;-0.4578984;1.717461;
637945234912234971;1126.618;6;4;1.5;1.1;2;923;1.62513542795233;-0.6427882;2.266044;-0.5488011;2.321493;0.8660256;1;0.5543984;1.403973;
637945234923998909;1127.794;6;4;1.5;1.1;2;1176;1.27551020408163;0.3420205;0.5603075;0.6151724;1.000624;-0.6427882;2.266044;-0.5488011;2.321493;
637945234953994565;1130.793;6;4;3.5;0.2;2;1588;2.20403022670025;-0.3420197;0.5603072;-0.3079513;0.6406622;0;2.5;0.003150121;2.553758;
637945234963275420;1131.722;6;4;3.5;0.2;2;907;3.85887541345094;0.6427875;2.266045;0.6726667;2.22408;-0.3420197;0.5603072;-0.3079513;0.6406622;
637945234982441148;1133.65;6;4;3.5;0.2;2;1928;1.81535269709544;-0.8660251;0.9999995;-0.8503907;0.9141079;0.6427875;2.266045;0.6726667;2.22408;
637945234991737780;1134.58;6;4;3.5;0.2;2;930;3.76344086021505;0.9848077;1.673648;0.9306088;1.615771;-0.8660251;0.9999995;-0.8503907;0.9141079;
637945235004089946;1135.804;6;4;3.5;0.2;2;1224;2.85947712418301;-0.9848078;1.673648;-1.033712;1.623963;0.9848077;1.673648;0.9306088;1.615771;
637945235022178675;1137.613;6;4;3.5;0.2;2;1809;1.93477059148701;0.8660256;1;0.859831;1.047909;-0.9848078;1.673648;-1.033712;1.623963;
637945235035090942;1138.902;6;4;3.5;0.2;2;1289;2.71528316524438;-0.6427882;2.266044;-0.6288707;2.296913;0.8660256;1;0.859831;1.047909;
637945235074260130;1142.821;6;4;3.5;0.2;2;3919;0.89308497065578;0.3420205;0.5603075;0.3362361;0.6137114;-0.6427882;2.266044;-0.6288707;2.296913;
637945235101274870;1145.522;6;4;3;0.2;1.4;1546;1.9404915912031;-0.2394138;0.8422151;-0.1898385;0.8399618;0;2.2;-0.01487848;2.278614;
637945235118601318;1147.255;6;4;3;0.2;1.4;1730;1.73410404624277;0.4499513;2.036231;0.4432667;2.050048;-0.2394138;0.8422151;-0.1898385;0.8399618;
637945235135134221;1148.908;6;4;3;0.2;1.4;1653;1.81488203266788;-0.6062176;1.15;-0.6582714;1.176117;0.4499513;2.036231;0.4432667;2.050048;
637945235150220667;1150.417;6;4;3;0.2;1.4;1509;1.98807157057654;0.6893654;1.621554;0.6638558;1.582826;-0.6062176;1.15;-0.6582714;1.176117;
637945235165213293;1151.916;6;4;3;0.2;1.4;1499;2.00133422281521;-0.6893655;1.621553;-0.6931182;1.580953;0.6893654;1.621554;0.6638558;1.582826;
637945235184201635;1153.815;6;4;3;0.2;1.4;1895;1.58311345646438;0.6062179;1.15;0.5584351;1.146874;-0.6893655;1.621553;-0.6931182;1.580953;
637945235199229270;1155.317;6;4;3;0.2;1.4;1502;1.99733688415446;-0.4499517;2.036231;-0.4484684;1.991732;0.6062179;1.15;0.5584351;1.146874;
637945235213620806;1156.768;6;4;3;0.2;1.4;1451;2.06753962784287;0.2394144;0.8422153;0.1966968;0.9322013;-0.4499517;2.036231;-0.4484684;1.991732;
637945235241311518;1159.525;6;4;2;0.6;1.8;1300;1.53846153846154;-0.3078177;0.6542765;-0.2085879;0.8872213;0;2.4;0.00419465;2.297245;
637945235253193606;1160.714;6;4;2;0.6;1.8;1188;1.68350168350168;0.5785087;2.18944;0.5261837;2.172083;-0.3078177;0.6542765;-0.2085879;0.8872213;
637945235263405397;1161.735;6;4;2;0.6;1.8;1022;1.95694716242661;-0.7794226;1.05;-0.5000723;1.146115;0.5785087;2.18944;0.5261837;2.172083;
637945235273197121;1162.713;6;4;2;0.6;1.8;978;2.04498977505112;0.8863269;1.656283;0.7695163;1.504769;-0.7794226;1.05;-0.5000723;1.146115;
637945235283223883;1163.718;6;4;2;0.6;1.8;1004;1.99203187250996;-0.8863271;1.656283;-0.7795078;1.831808;0.8863269;1.656283;0.7695163;1.504769;
637945235299261494;1165.321;6;4;2;0.6;1.8;1604;1.24688279301746;0.779423;1.05;0.9197167;1.171939;-0.8863271;1.656283;-0.7795078;1.831808;
637945235317291161;1167.123;6;4;2;0.6;1.8;1802;1.10987791342952;-0.5785094;2.18944;-0.627055;2.318079;0.779423;1.05;0.9197167;1.171939;
637945235350236469;1170.418;6;4;2;0.6;1.8;3282;0.609384521633151;0.3078185;0.6542768;0.2970187;0.8309571;-0.5785094;2.18944;-0.627055;2.318079;
637945236355824576;1270.977;6;5;2.5;0.3;1.4;1896;1.31856540084388;-0.2394138;0.8422151;-0.2668127;0.9181863;0;2.2;-0.04618245;2.319997;
637945236363652119;1271.771;6;5;2.5;0.3;1.4;783;3.19284802043423;0.4499513;2.036231;0.3306972;1.999961;-0.2394138;0.8422151;-0.2668127;0.9181863;
637945236370848547;1272.479;6;5;2.5;0.3;1.4;708;3.53107344632768;-0.6062176;1.15;-0.6271228;1.298486;0.4499513;2.036231;0.3306972;1.999961;
637945236377299682;1273.136;6;5;2.5;0.3;1.4;656;3.8109756097561;0.6893654;1.621554;0.5995771;1.585294;-0.6062176;1.15;-0.6271228;1.298486;
637945236385321091;1273.938;6;5;2.5;0.3;1.4;802;3.11720698254364;-0.6893655;1.621553;-0.5462261;1.666271;0.6893654;1.621554;0.5995771;1.585294;
637945236399066871;1275.302;6;5;2.5;0.3;1.4;1364;1.83284457478006;0.6062179;1.15;0.5271874;1.055306;-0.6893655;1.621553;-0.5462261;1.666271;
637945236426886440;1278.084;6;5;2.5;0.3;1.4;2782;0.89863407620417;-0.4499517;2.036231;-0.4230106;2.005003;0.6062179;1.15;0.5271874;1.055306;
637945236437925022;1279.187;6;5;2.5;0.3;1.4;1103;2.26654578422484;0.2394144;0.8422153;0.284475;0.7601861;-0.4499517;2.036231;-0.4230106;2.005003;
637945236461922173;1281.587;6;5;2;0.6;1.8;1037;1.92864030858245;-0.3078177;0.6542765;-0.2295589;0.7916151;0;2.4;-0.08447732;2.653046;
637945236472041228;1282.597;6;5;2;0.6;1.8;1010;1.98019801980198;0.5785087;2.18944;0.6252049;2.250931;-0.3078177;0.6542765;-0.2295589;0.7916151;
637945236486018688;1283.996;6;5;2;0.6;1.8;1399;1.42959256611866;-0.7794226;1.05;-0.9035113;1.137912;0.5785087;2.18944;0.6252049;2.250931;
637945236499893721;1285.384;6;5;2;0.6;1.8;1388;1.44092219020173;0.8863269;1.656283;0.8879914;1.591835;-0.7794226;1.05;-0.9035113;1.137912;
637945236512891247;1286.684;6;5;2;0.6;1.8;1300;1.53846153846154;-0.8863271;1.656283;-0.9369811;1.646782;0.8863269;1.656283;0.8879914;1.591835;
637945236527106802;1288.106;6;5;2;0.6;1.8;1422;1.40646976090014;0.779423;1.05;0.9332311;1.152365;-0.8863271;1.656283;-0.9369811;1.646782;
637945236535968361;1288.992;6;5;2;0.6;1.8;886;2.25733634311512;-0.5785094;2.18944;-0.588124;2.077068;0.779423;1.05;0.9332311;1.152365;
637945236546995210;1290.094;6;5;2;0.6;1.8;1075;1.86046511627907;0.3078185;0.6542768;0.4233351;0.7448734;-0.5785094;2.18944;-0.588124;2.077068;
637945236568992951;1292.294;6;5;1.5;1.1;2;1002;1.49700598802395;-0.3420197;0.5603072;-0.3382955;0.9241334;0;2.5;-0.01119031;2.7666;
637945236576994353;1293.093;6;5;1.5;1.1;2;799;1.87734668335419;0.6427875;2.266045;0.3083987;1.907875;-0.3420197;0.5603072;-0.3382955;0.9241334;
637945236584355645;1293.841;6;5;1.5;1.1;2;748;2.00534759358289;-0.8660251;0.9999995;-0.4773497;1.372208;0.6427875;2.266045;0.3083987;1.907875;
637945236594184167;1294.81;6;5;1.5;1.1;2;969;1.54798761609907;0.9848077;1.673648;0.8273131;1.638757;-0.8660251;0.9999995;-0.4773497;1.372208;
637945236606981411;1296.093;6;5;1.5;1.1;2;1283;1.16913484021824;-0.9848078;1.673648;-0.6475009;1.629948;0.9848077;1.673648;0.8273131;1.638757;
637945236617950623;1297.189;6;5;1.5;1.1;2;1096;1.36861313868613;0.8660256;1;1.036572;1.082783;-0.9848078;1.673648;-0.6475009;1.629948;
637945236626972206;1298.091;6;5;1.5;1.1;2;902;1.6629711751663;-0.6427882;2.266044;-0.5528147;2.064403;0.8660256;1;1.036572;1.082783;
637945236637955288;1299.19;6;5;1.5;1.1;2;1099;1.36487716105551;0.3420205;0.5603075;0.4045166;0.9199357;-0.6427882;2.266044;-0.5528147;2.064403;
637945236659054205;1301.3;6;5;3;0.2;1.4;1245;2.40963855421687;-0.2394138;0.8422151;-0.2903145;0.8262939;0;2.2;0.001754908;2.283394;
637945236666180457;1302.012;6;5;3;0.2;1.4;711;4.21940928270042;0.4499513;2.036231;0.3715912;2.026667;-0.2394138;0.8422151;-0.2903145;0.8262939;
637945236675152030;1302.91;6;5;3;0.2;1.4;898;3.34075723830735;-0.6062176;1.15;-0.6872526;1.177493;0.4499513;2.036231;0.3715912;2.026667;
637945236691960413;1304.591;6;5;3;0.2;1.4;1631;1.83936235438381;0.6893654;1.621554;0.5953834;1.655729;-0.6062176;1.15;-0.6872526;1.177493;
637945236707239939;1306.119;6;5;3;0.2;1.4;1512;1.98412698412698;-0.6893655;1.621553;-0.7626126;1.605867;0.6893654;1.621554;0.5953834;1.655729;
637945236727135082;1308.108;6;5;3;0.2;1.4;1990;1.50753768844221;0.6062179;1.15;0.57058;1.105489;-0.6893655;1.621553;-0.7626126;1.605867;
637945236741000890;1309.495;6;5;3;0.2;1.4;1387;2.16294160057678;-0.4499517;2.036231;-0.4191887;2.033073;0.6062179;1.15;0.57058;1.105489;
637945236756970454;1311.092;6;5;3;0.2;1.4;1597;1.87852222917971;0.2394144;0.8422153;0.2526771;0.8623201;-0.4499517;2.036231;-0.4191887;2.033073;
637945236797993161;1315.194;6;5;4.5;0.1;2.2;2090;2.15311004784689;-0.3762217;0.4663379;-0.3755082;0.5043397;0;2.6;0.03519583;2.571224;
637945236811410516;1316.547;6;5;4.5;0.1;2.2;1353;3.32594235033259;0.7070663;2.342649;0.6640753;2.344489;-0.3762217;0.4663379;-0.3755082;0.5043397;
637945236831178987;1318.513;6;5;4.5;0.1;2.2;1966;2.28891149542218;-0.9526277;0.9499994;-0.9095352;0.9599709;0.7070663;2.342649;0.6640753;2.344489;
637945236853165133;1320.711;6;5;4.5;0.1;2.2;2197;2.04824761037779;1.083289;1.691013;1.078821;1.718883;-0.9526277;0.9499994;-0.9095352;0.9599709;
637945236873154387;1322.71;6;5;4.5;0.1;2.2;1999;2.25112556278139;-1.083289;1.691012;-1.083166;1.693729;1.083289;1.691013;1.078821;1.718883;
637945236894152740;1324.809;6;5;4.5;0.1;2.2;2099;2.14387803716055;0.9526281;0.9500003;0.9568326;0.9605414;-1.083289;1.691012;-1.083166;1.693729;
637945236911140720;1326.509;6;5;4.5;0.1;2.2;1700;2.64705882352941;-0.7070671;2.342648;-0.6712036;2.32465;0.9526281;0.9500003;0.9568326;0.9605414;
637945236929058359;1328.301;6;5;4.5;0.1;2.2;1789;2.51537171604248;0.3762226;0.4663382;0.3657944;0.4647273;-0.7070671;2.342648;-0.6712036;2.32465;
637945236955119982;1330.907;6;5;3.5;0.2;2;1200;2.91666666666667;-0.3420197;0.5603072;-0.302816;0.5976658;0;2.5;-0.02824037;2.505856;
637945236968082260;1332.202;6;5;3.5;0.2;2;1295;2.7027027027027;0.6427875;2.266045;0.6452532;2.321836;-0.3420197;0.5603072;-0.302816;0.5976658;
637945236975878628;1332.994;6;5;3.5;0.2;2;792;4.41919191919192;-0.8660251;0.9999995;-0.8654956;1.071512;0.6427875;2.266045;0.6452532;2.321836;
637945236989101960;1334.305;6;5;3.5;0.2;2;1311;2.6697177726926;0.9848077;1.673648;0.9797836;1.733593;-0.8660251;0.9999995;-0.8654956;1.071512;
637945237004226138;1335.817;6;5;3.5;0.2;2;1512;2.31481481481481;-0.9848078;1.673648;-0.9374014;1.650636;0.9848077;1.673648;0.9797836;1.733593;
637945237023459697;1337.739;6;5;3.5;0.2;2;1880;1.86170212765957;0.8660256;1;0.8216115;1.014696;-0.9848078;1.673648;-0.9374014;1.650636;
637945237038312299;1339.226;6;5;3.5;0.2;2;1487;2.3537323470074;-0.6427882;2.266044;-0.6741606;2.19063;0.8660256;1;0.8216115;1.014696;
637945237051179557;1340.513;6;5;3.5;0.2;2;1287;2.71950271950272;0.3420205;0.5603075;0.3330236;0.6302196;-0.6427882;2.266044;-0.6741606;2.19063;
637945237105294276;1345.923;6;5;4;0.1;1.4;4040;0.99009900990099;-0.2394138;0.8422151;-0.2093181;0.8335601;0;2.2;0.04837329;2.207339;
637945237125725679;1347.979;6;5;4;0.1;1.4;2055;1.94647201946472;0.4499513;2.036231;0.406536;2.029114;-0.2394138;0.8422151;-0.2093181;0.8335601;
637945237150345002;1350.429;6;5;4;0.1;1.4;2450;1.63265306122449;-0.6062176;1.15;-0.5933926;1.16181;0.4499513;2.036231;0.406536;2.029114;
637945237165242138;1351.919;6;5;4;0.1;1.4;1490;2.68456375838926;0.6893654;1.621554;0.6507621;1.603824;-0.6062176;1.15;-0.5933926;1.16181;
637945237200225645;1355.417;6;5;4;0.1;1.4;3498;1.14351057747284;-0.6893655;1.621553;-0.6589592;1.592456;0.6893654;1.621554;0.6507621;1.603824;
637945237218433838;1357.238;6;5;4;0.1;1.4;1822;2.1953896816685;0.6062179;1.15;0.6031102;1.121133;-0.6893655;1.621553;-0.6589592;1.592456;
637945237234841713;1358.89;6;5;4;0.1;1.4;1638;2.44200244200244;-0.4499517;2.036231;-0.4017997;2.041919;0.6062179;1.15;0.6031102;1.121133;
637945237264417650;1361.837;6;5;4;0.1;1.4;2947;1.35731252120801;0.2394144;0.8422153;0.2470903;0.833653;-0.4499517;2.036231;-0.4017997;2.041919;
637945238026741938;1438.066;6;6;1.5;1.1;2;999;1.5015015015015;-0.3420197;0.5603072;-0.2187037;1.092309;0;2.5;-0.0009260904;2.37131;
637945238034733338;1438.865;6;6;1.5;1.1;2;799;1.87734668335419;0.6427875;2.266045;0.4624376;2.151299;-0.3420197;0.5603072;-0.2187037;1.092309;
637945238060851832;1441.476;6;6;1.5;1.1;2;2577;0.582072176949942;-0.8660251;0.9999995;-0.8186072;1.106158;0.6427875;2.266045;0.4624376;2.151299;
637945238077924828;1443.185;6;6;1.5;1.1;2;1709;0.877706260971328;0.9848077;1.673648;0.8948328;1.759232;-0.8660251;0.9999995;-0.8186072;1.106158;
637945238088851746;1444.276;6;6;1.5;1.1;2;1091;1.37488542621448;-0.9848078;1.673648;-1.025509;1.770265;0.9848077;1.673648;0.8948328;1.759232;
637945238102847911;1445.676;6;6;1.5;1.1;2;1400;1.07142857142857;0.8660256;1;1.050801;1.054871;-0.9848078;1.673648;-1.025509;1.770265;
637945238115910209;1446.983;6;6;1.5;1.1;2;1307;1.14766641162969;-0.6427882;2.266044;-0.7485762;2.544093;0.8660256;1;1.050801;1.054871;
637945238130832825;1448.473;6;6;1.5;1.1;2;1490;1.00671140939597;0.3420205;0.5603075;0.4570691;0.8817301;-0.6427882;2.266044;-0.7485762;2.544093;
637945238184812304;1453.871;6;6;3.5;0.2;2;1890;1.85185185185185;-0.3420197;0.5603072;-0.3898386;0.6137279;0;2.5;0.002709069;2.510407;
637945238207861345;1456.178;6;6;3.5;0.2;2;2307;1.51712180320763;0.6427875;2.266045;0.6695369;2.224225;-0.3420197;0.5603072;-0.3898386;0.6137279;
637945238223849150;1457.777;6;6;3.5;0.2;2;1599;2.18886804252658;-0.8660251;0.9999995;-0.8558964;1.049001;0.6427875;2.266045;0.6695369;2.224225;
637945238237846609;1459.177;6;6;3.5;0.2;2;1400;2.5;0.9848077;1.673648;0.9117217;1.672357;-0.8660251;0.9999995;-0.8558964;1.049001;
637945238253839418;1460.776;6;6;3.5;0.2;2;1599;2.18886804252658;-0.9848078;1.673648;-1.061288;1.686121;0.9848077;1.673648;0.9117217;1.672357;
637945238277828629;1463.175;6;6;3.5;0.2;2;2399;1.45894122551063;0.8660256;1;0.8028085;1.014871;-0.9848078;1.673648;-1.061288;1.686121;
637945238290955933;1464.487;6;6;3.5;0.2;2;1312;2.66768292682927;-0.6427882;2.266044;-0.6859257;2.284459;0.8660256;1;0.8028085;1.014871;
637945238305813541;1465.973;6;6;3.5;0.2;2;1486;2.35531628532974;0.3420205;0.5603075;0.3770052;0.6533697;-0.6427882;2.266044;-0.6859257;2.284459;
637945238359783012;1471.371;6;6;4;0.1;1.4;2086;1.91754554170662;-0.2394138;0.8422151;-0.258476;0.8560939;0;2.2;0.003636615;2.211042;
637945238369794768;1472.372;6;6;4;0.1;1.4;1001;3.996003996004;0.4499513;2.036231;0.4535041;2.051611;-0.2394138;0.8422151;-0.258476;0.8560939;
637945238398874873;1475.28;6;6;4;0.1;1.4;2908;1.37551581843191;-0.6062176;1.15;-0.6240784;1.158132;0.4499513;2.036231;0.4535041;2.051611;
637945238420898747;1477.48;6;6;4;0.1;1.4;2201;1.81735574738755;0.6893654;1.621554;0.6964051;1.591619;-0.6062176;1.15;-0.6240784;1.158132;
637945238440857249;1479.478;6;6;4;0.1;1.4;1997;2.00300450676014;-0.6893655;1.621553;-0.6683973;1.5997;0.6893654;1.621554;0.6964051;1.591619;
637945238478878918;1483.278;6;6;4;0.1;1.4;3800;1.05263157894737;0.6062179;1.15;0.58881;1.124091;-0.6893655;1.621553;-0.6683973;1.5997;
637945238493941564;1484.786;6;6;4;0.1;1.4;1508;2.6525198938992;-0.4499517;2.036231;-0.4639044;2.033828;0.6062179;1.15;0.58881;1.124091;
637945238508819172;1486.274;6;6;4;0.1;1.4;1488;2.68817204301075;0.2394144;0.8422153;0.2032892;0.8477238;-0.4499517;2.036231;-0.4639044;2.033828;
637945238539566442;1489.359;6;6;2.5;0.3;1.4;1174;2.12947189097104;-0.2394138;0.8422151;-0.2211701;0.9886088;0;2.2;0.02965534;2.156188;
637945238547926052;1490.185;6;6;2.5;0.3;1.4;826;3.02663438256659;0.4499513;2.036231;0.3468257;2.072267;-0.2394138;0.8422151;-0.2211701;0.9886088;
637945238559037995;1491.294;6;6;2.5;0.3;1.4;1109;2.25428313796213;-0.6062176;1.15;-0.5893093;1.159436;0.4499513;2.036231;0.3468257;2.072267;
637945238569934913;1492.384;6;6;2.5;0.3;1.4;1090;2.29357798165138;0.6893654;1.621554;0.681157;1.67099;-0.6062176;1.15;-0.5893093;1.159436;
637945238579971677;1493.39;6;6;2.5;0.3;1.4;1005;2.48756218905473;-0.6893655;1.621553;-0.6274592;1.605494;0.6893654;1.621554;0.681157;1.67099;
637945238589928425;1494.384;6;6;2.5;0.3;1.4;994;2.51509054325956;0.6062179;1.15;0.6186328;1.25977;-0.6893655;1.621553;-0.6274592;1.605494;
637945238603880873;1495.78;6;6;2.5;0.3;1.4;1397;1.78954903364352;-0.4499517;2.036231;-0.3664178;1.959115;0.6062179;1.15;0.6186328;1.25977;
637945238646143289;1500.003;6;6;2.5;0.3;1.4;4223;0.591996211224248;0.2394144;0.8422153;0.2272585;0.8504454;-0.4499517;2.036231;-0.3664178;1.959115;
637945238695179455;1504.91;6;6;3;0.2;1.4;2620;1.14503816793893;-0.2394138;0.8422151;-0.259148;0.883595;0;2.2;-0.006905932;2.181049;
637945238712062420;1506.598;6;6;3;0.2;1.4;1689;1.77619893428064;0.4499513;2.036231;0.494305;2.018123;-0.2394138;0.8422151;-0.259148;0.883595;
637945238727195075;1508.11;6;6;3;0.2;1.4;1512;1.98412698412698;-0.6062176;1.15;-0.5693847;1.161317;0.4499513;2.036231;0.494305;2.018123;
637945238742057686;1509.597;6;6;3;0.2;1.4;1487;2.01748486886348;0.6893654;1.621554;0.6230802;1.645424;-0.6062176;1.15;-0.5693847;1.161317;
637945238763156386;1511.709;6;6;3;0.2;1.4;2111;1.42112742775936;-0.6893655;1.621553;-0.7010809;1.579477;0.6893654;1.621554;0.6230802;1.645424;
637945238778192525;1513.213;6;6;3;0.2;1.4;1498;2.00267022696929;0.6062179;1.15;0.5629871;1.093371;-0.6893655;1.621553;-0.7010809;1.579477;
637945238791118229;1514.507;6;6;3;0.2;1.4;1293;2.32018561484919;-0.4499517;2.036231;-0.3888635;2.061761;0.6062179;1.15;0.5629871;1.093371;
637945238808236696;1516.218;6;6;3;0.2;1.4;1711;1.75336060783168;0.2394144;0.8422153;0.2748433;0.878593;-0.4499517;2.036231;-0.3888635;2.061761;
637945238845538653;1519.96;6;6;4.5;0.1;2.2;2049;2.19619326500732;-0.3762217;0.4663379;-0.3414773;0.4337381;0;2.6;-0.02309692;2.626334;
637945238862621867;1521.654;6;6;4.5;0.1;2.2;1694;2.65643447461629;0.7070663;2.342649;0.6752928;2.343329;-0.3762217;0.4663379;-0.3414773;0.4337381;
637945238879284790;1523.323;6;6;4.5;0.1;2.2;1669;2.69622528460156;-0.9526277;0.9499994;-0.9475092;0.9739535;0.7070663;2.342649;0.6752928;2.343329;
637945238896273759;1525.022;6;6;4.5;0.1;2.2;1692;2.65957446808511;1.083289;1.691013;1.041059;1.670643;-0.9526277;0.9499994;-0.9475092;0.9739535;
637945238919177779;1527.312;6;6;4.5;0.1;2.2;2291;1.96420776953296;-1.083289;1.691012;-1.055196;1.680393;1.083289;1.691013;1.041059;1.670643;
637945238945143283;1529.909;6;6;4.5;0.1;2.2;2597;1.73276857912977;0.9526281;0.9500003;0.9793127;0.9710305;-1.083289;1.691012;-1.055196;1.680393;
637945238963246459;1531.719;6;6;4.5;0.1;2.2;1810;2.48618784530387;-0.7070671;2.342648;-0.6665578;2.345904;0.9526281;0.9500003;0.9793127;0.9710305;
637945238979129249;1533.308;6;6;4.5;0.1;2.2;1589;2.83196979232222;0.3762226;0.4663382;0.3625666;0.5142815;-0.7070671;2.342648;-0.6665578;2.345904;
637945238998197566;1535.215;6;6;2;0.6;1.8;999;2.002002002002;-0.3078177;0.6542765;-0.2501171;0.8171073;0;2.4;-0.04900723;2.371368;
637945239009412718;1536.334;6;6;2;0.6;1.8;1119;1.78731009830206;0.5785087;2.18944;0.5268357;2.007062;-0.3078177;0.6542765;-0.2501171;0.8171073;
637945239026238749;1538.017;6;6;2;0.6;1.8;1683;1.1883541295306;-0.7794226;1.05;-0.8716062;1.1382;0.5785087;2.18944;0.5268357;2.007062;
637945239051458425;1540.539;6;6;2;0.6;1.8;2521;0.793335977786593;0.8863269;1.656283;0.7426177;1.687797;-0.7794226;1.05;-0.8716062;1.1382;
637945239063308780;1541.725;6;6;2;0.6;1.8;1186;1.68634064080944;-0.8863271;1.656283;-0.9157372;1.71264;0.8863269;1.656283;0.7426177;1.687797;
637945239082421756;1543.637;6;6;2;0.6;1.8;1912;1.04602510460251;0.779423;1.05;0.6124232;0.9544103;-0.8863271;1.656283;-0.9157372;1.71264;
637945239099289716;1545.323;6;6;2;0.6;1.8;1686;1.18623962040332;-0.5785094;2.18944;-0.4986495;2.404448;0.779423;1.05;0.6124232;0.9544103;
637945239114194149;1546.814;6;6;2;0.6;1.8;1491;1.34138162307176;0.3078185;0.6542768;0.1905591;0.7551118;-0.5785094;2.18944;-0.4986495;2.404448;
