637945171267006258;145.7033;2;0;2;0.6;1.8;887;2.25479143179256;-0.3078177;0.6542765;-0.2035985;0.781204;0;2.4;0.07069235;2.15647;
637945171277018100;146.7043;2;0;2;0.6;1.8;1001;1.998001998002;0.5785087;2.18944;0.5208547;2.083423;-0.3078177;0.6542765;-0.2035985;0.781204;
637945171286134783;147.6146;2;0;2;0.6;1.8;910;2.1978021978022;-0.7794226;1.05;-0.9269568;1.008599;0.5785087;2.18944;0.5208547;2.083423;
637945171296106623;148.6132;2;0;2;0.6;1.8;999;2.002002002002;0.8863269;1.656283;0.8443725;1.619855;-0.7794226;1.05;-0.9269568;1.008599;
637945171306118405;149.6098;2;0;2;0.6;1.8;997;2.00601805416249;-0.8863271;1.656283;-0.7621344;1.577664;0.8863269;1.656283;0.8443725;1.619855;
637945171315005043;150.5029;2;0;2;0.6;1.8;893;2.23964165733483;0.779423;1.05;0.7257587;1.137077;-0.8863271;1.656283;-0.7621344;1.577664;
637945171323006523;151.3029;2;0;2;0.6;1.8;800;2.5;-0.5785094;2.18944;-0.4156764;2.074811;0.779423;1.05;0.7257587;1.137077;
637945171331007995;152.1027;2;0;2;0.6;1.8;800;2.5;0.3078185;0.6542768;0.2790408;0.6541029;-0.5785094;2.18944;-0.4156764;2.074811;
637945171346070772;153.6103;2;0;2.5;0.3;1.4;708;3.53107344632768;-0.2394138;0.8422151;-0.2441285;0.9321377;0;2.2;0.06229972;2.135222;
637945171353192085;154.3222;2;0;2.5;0.3;1.4;712;3.51123595505618;0.4499513;2.036231;0.4770298;1.907119;-0.2394138;0.8422151;-0.2441285;0.9321377;
637945171361268570;155.122;2;0;2.5;0.3;1.4;800;3.125;-0.6062176;1.15;-0.5308893;1.231543;0.4499513;2.036231;0.4770298;1.907119;
637945171373175772;156.3208;2;0;2.5;0.3;1.4;1199;2.08507089241034;0.6893654;1.621554;0.5904309;1.597314;-0.6062176;1.15;-0.5308893;1.231543;
637945171382052408;157.2087;2;0;2.5;0.3;1.4;888;2.81531531531532;-0.6893655;1.621553;-0.6063107;1.637296;0.6893654;1.621554;0.5904309;1.597314;
637945171394304150;158.4319;2;0;2.5;0.3;1.4;1223;2.04415372035977;0.6062179;1.15;0.5053194;1.138669;-0.6893655;1.621553;-0.6063107;1.637296;
637945171404065950;159.4095;2;0;2.5;0.3;1.4;978;2.55623721881391;-0.4499517;2.036231;-0.3399015;2.007874;0.6062179;1.15;0.5053194;1.138669;
637945171414312839;160.4318;2;0;2.5;0.3;1.4;1022;2.44618395303327;0.2394144;0.8422153;0.2245147;0.9100448;-0.4499517;2.036231;-0.3399015;2.007874;
637945171442918114;163.3064;2;0;4;0.1;1.4;1078;3.71057513914657;-0.2394138;0.8422151;-0.2024056;0.8222347;0;2.2;-0.001275396;2.192718;
637945171456778327;164.6911;2;0;4;0.1;1.4;1385;2.88808664259928;0.4499513;2.036231;0.4056344;2.026567;-0.2394138;0.8422151;-0.2024056;0.8222347;
637945171473543759;166.3673;2;0;4;0.1;1.4;1676;2.38663484486874;-0.6062176;1.15;-0.5934224;1.192873;0.4499513;2.036231;0.4056344;2.026567;
637945171494222576;168.4255;2;0;4;0.1;1.4;2058;1.94363459669582;0.6893654;1.621554;0.6666774;1.619413;-0.6062176;1.15;-0.5934224;1.192873;
637945171510215525;170.0249;2;0;4;0.1;1.4;1588;2.51889168765743;-0.6893655;1.621553;-0.6829198;1.579231;0.6893654;1.621554;0.6666774;1.619413;
637945171529317646;171.9348;2;0;4;0.1;1.4;1910;2.09424083769634;0.6062179;1.15;0.5825199;1.167982;-0.6893655;1.621553;-0.6829198;1.579231;
637945171545315597;173.5343;2;0;4;0.1;1.4;1599;2.50156347717323;-0.4499517;2.036231;-0.4663891;1.995932;0.6062179;1.15;0.5825199;1.167982;
637945171556197612;174.6229;2;0;4;0.1;1.4;1089;3.67309458218549;0.2394144;0.8422153;0.2531714;0.832095;-0.4499517;2.036231;-0.4663891;1.995932;
637945171583302605;177.3332;2;0;3;0.2;1.4;1800;1.66666666666667;-0.2394138;0.8422151;-0.2384095;0.8960578;0;2.2;0.0387427;2.137904;
637945171600395762;179.0424;2;0;3;0.2;1.4;1709;1.75541252194266;0.4499513;2.036231;0.4276195;1.958024;-0.2394138;0.8422151;-0.2384095;0.8960578;
637945171616383704;180.6415;2;0;3;0.2;1.4;1599;1.87617260787993;-0.6062176;1.15;-0.5707257;1.1498;0.4499513;2.036231;0.4276195;1.958024;
637945171626210522;181.6213;2;0;3;0.2;1.4;980;3.06122448979592;0.6893654;1.621554;0.6864929;1.610933;-0.6062176;1.15;-0.5707257;1.1498;
637945171635242185;182.53;2;0;3;0.2;1.4;909;3.3003300330033;-0.6893655;1.621553;-0.6589047;1.589233;0.6893654;1.621554;0.6864929;1.610933;
637945171646269226;183.6327;2;0;3;0.2;1.4;1103;2.71985494106981;0.6062179;1.15;0.5439878;1.176489;-0.6893655;1.621553;-0.6589047;1.589233;
637945171659237176;184.9293;2;0;3;0.2;1.4;1285;2.33463035019455;-0.4499517;2.036231;-0.4009541;2.016213;0.6062179;1.15;0.5439878;1.176489;
637945171674334956;186.4391;2;0;3;0.2;1.4;1510;1.98675496688742;0.2394144;0.8422153;0.2472798;0.8864181;-0.4499517;2.036231;-0.4009541;2.016213;
637945171716331139;190.6387;2;0;4.5;0.1;2.2;2310;1.94805194805195;-0.3762217;0.4663379;-0.3473802;0.4927503;0;2.6;-0.003173409;2.587253;
637945171732424114;192.248;2;0;4.5;0.1;2.2;1609;2.79676817899316;0.7070663;2.342649;0.6781368;2.323193;-0.3762217;0.4663379;-0.3473802;0.4927503;
637945171746416924;193.647;2;0;4.5;0.1;2.2;1399;3.21658327376698;-0.9526277;0.9499994;-0.914465;0.9301686;0.7070663;2.342649;0.6781368;2.323193;
637945171761303581;195.1359;2;0;4.5;0.1;2.2;1489;3.02216252518469;1.083289;1.691013;1.074708;1.734201;-0.9526277;0.9499994;-0.914465;0.9301686;
637945171774402145;196.4454;2;0;4.5;0.1;2.2;1309;3.43773873185638;-1.083289;1.691012;-1.082457;1.670448;1.083289;1.691013;1.074708;1.734201;
637945171791309026;198.1364;2;0;4.5;0.1;2.2;1691;2.66114725014784;0.9526281;0.9500003;0.9079258;0.960498;-1.083289;1.691012;-1.082457;1.670448;
637945171809822954;199.9989;2;0;4.5;0.1;2.2;1863;2.41545893719807;-0.7070671;2.342648;-0.733146;2.315563;0.9526281;0.9500003;0.9079258;0.960498;
637945171825521042;201.5561;2;0;4.5;0.1;2.2;1557;2.89017341040462;0.3762226;0.4663382;0.3467923;0.4821707;-0.7070671;2.342648;-0.733146;2.315563;
637945171844270325;203.4317;2;0;1.5;1.1;2;1100;1.36363636363636;-0.3420197;0.5603072;-0.1975737;0.9987085;0;2.5;0.09461122;2.260195;
637945171852376822;204.2431;2;0;1.5;1.1;2;811;1.84956843403206;0.6427875;2.266045;0.6435765;2.011667;-0.3420197;0.5603072;-0.1975737;0.9987085;
637945171860278277;205.0321;2;0;1.5;1.1;2;789;1.90114068441065;-0.8660251;0.9999995;-0.738036;1.314327;0.6427875;2.266045;0.6435765;2.011667;
637945171868259751;205.8304;2;0;1.5;1.1;2;798;1.8796992481203;0.9848077;1.673648;0.8598303;1.676642;-0.8660251;0.9999995;-0.738036;1.314327;
637945171875351054;206.5405;2;0;1.5;1.1;2;710;2.11267605633803;-0.9848078;1.673648;-0.7202297;1.686504;0.9848077;1.673648;0.8598303;1.676642;
637945171881347161;207.1397;2;0;1.5;1.1;2;599;2.50417362270451;0.8660256;1;0.4757564;1.301991;-0.9848078;1.673648;-0.7202297;1.686504;
637945171889313630;207.937;2;0;1.5;1.1;2;797;1.88205771643664;-0.6427882;2.266044;-0.4377019;1.955453;0.8660256;1;0.4757564;1.301991;
637945171896339925;208.6393;2;0;1.5;1.1;2;702;2.13675213675214;0.3420205;0.5603075;0.2288912;0.985331;-0.6427882;2.266044;-0.4377019;1.955453;
637945171918327002;210.8375;2;0;3.5;0.2;2;974;3.59342915811088;-0.3420197;0.5603072;-0.3412734;0.6368272;0;2.5;-0.04302429;2.517731;
637945171929304182;211.9359;2;0;3.5;0.2;2;1098;3.18761384335155;0.6427875;2.266045;0.5735039;2.317389;-0.3420197;0.5603072;-0.3412734;0.6368272;
637945171940311486;213.0367;2;0;3.5;0.2;2;1101;3.17892824704814;-0.8660251;0.9999995;-0.7791695;1.000743;0.6427875;2.266045;0.5735039;2.317389;
637945171950318329;214.0352;2;0;3.5;0.2;2;999;3.5035035035035;0.9848077;1.673648;0.9971781;1.678903;-0.8660251;0.9999995;-0.7791695;1.000743;
637945171959314990;214.937;2;0;3.5;0.2;2;902;3.88026607538803;-0.9848078;1.673648;-0.9136871;1.642419;0.9848077;1.673648;0.9971781;1.678903;
637945171969297305;215.9352;2;0;3.5;0.2;2;998;3.50701402805611;0.8660256;1;0.8321477;1.061242;-0.9848078;1.673648;-0.9136871;1.642419;
637945171983409909;217.3459;2;0;3.5;0.2;2;1411;2.48051027639972;-0.6427882;2.266044;-0.6060994;2.188344;0.8660256;1;0.8321477;1.061242;
637945171996328936;218.6353;2;0;3.5;0.2;2;1289;2.71528316524438;0.3420205;0.5603075;0.3035033;0.5481616;-0.6427882;2.266044;-0.6060994;2.188344;
637945173477030026;366.7063;2;1;2.5;0.3;1.4;1400;1.78571428571429;-0.2394138;0.8422151;-0.2228474;0.9151368;0;2.2;-0.05670811;2.270015;
637945173485016496;367.5057;2;1;2.5;0.3;1.4;799;3.12891113892365;0.4499513;2.036231;0.4205259;1.965912;-0.2394138;0.8422151;-0.2228474;0.9151368;
637945173492978624;368.3015;2;1;2.5;0.3;1.4;796;3.14070351758794;-0.6062176;1.15;-0.616699;1.192237;0.4499513;2.036231;0.4205259;1.965912;
637945173502010289;369.2044;2;1;2.5;0.3;1.4;903;2.76854928017719;0.6893654;1.621554;0.6420223;1.66818;-0.6062176;1.15;-0.616699;1.192237;
637945173510127543;370.017;2;1;2.5;0.3;1.4;813;3.0750307503075;-0.6893655;1.621553;-0.6939188;1.581103;0.6893654;1.621554;0.6420223;1.66818;
637945173519019182;370.9058;2;1;2.5;0.3;1.4;889;2.81214848143982;0.6062179;1.15;0.5964203;1.200865;-0.6893655;1.621553;-0.6939188;1.581103;
637945173528019119;371.8054;2;1;2.5;0.3;1.4;900;2.77777777777778;-0.4499517;2.036231;-0.4379728;2.020487;0.6062179;1.15;0.5964203;1.200865;
637945173540994236;373.1029;2;1;2.5;0.3;1.4;1298;1.92604006163328;0.2394144;0.8422153;0.1910656;0.8945552;-0.4499517;2.036231;-0.4379728;2.020487;
637945173580076599;377.0114;2;1;3.5;0.2;2;1508;2.3209549071618;-0.3420197;0.5603072;-0.2934833;0.6378846;0;2.5;0.02933775;2.457415;
637945173592078819;378.2108;2;1;3.5;0.2;2;1199;2.91909924937448;0.6427875;2.266045;0.6661536;2.218075;-0.3420197;0.5603072;-0.2934833;0.6378846;
637945173605429132;379.5468;2;1;3.5;0.2;2;1336;2.61976047904192;-0.8660251;0.9999995;-0.8557286;0.913922;0.6427875;2.266045;0.6661536;2.218075;
637945173616181114;380.622;2;1;3.5;0.2;2;1075;3.25581395348837;0.9848077;1.673648;0.8913309;1.674763;-0.8660251;0.9999995;-0.8557286;0.913922;
637945173626177962;381.6216;2;1;3.5;0.2;2;1000;3.5;-0.9848078;1.673648;-0.9564565;1.66653;0.9848077;1.673648;0.8913309;1.674763;
637945173636280380;382.6319;2;1;3.5;0.2;2;1010;3.46534653465347;0.8660256;1;0.8622799;1.014207;-0.9848078;1.673648;-0.9564565;1.66653;
637945173647291365;383.7323;2;1;3.5;0.2;2;1100;3.18181818181818;-0.6427882;2.266044;-0.5752725;2.249785;0.8660256;1;0.8622799;1.014207;
637945173658168368;384.8205;2;1;3.5;0.2;2;1088;3.21691176470588;0.3420205;0.5603075;0.368681;0.6151755;-0.6427882;2.266044;-0.5752725;2.249785;
637945173680122420;387.0161;2;1;4.5;0.1;2.2;1196;3.76254180602007;-0.3762217;0.4663379;-0.3352667;0.4924533;0;2.6;-0.02540993;2.559668;
637945173700681214;389.0831;2;1;4.5;0.1;2.2;2067;2.17706821480406;0.7070663;2.342649;0.7522926;2.336037;-0.3762217;0.4663379;-0.3352667;0.4924533;
637945173714245180;390.428;2;1;4.5;0.1;2.2;1345;3.3457249070632;-0.9526277;0.9499994;-0.9361008;0.9634786;0.7070663;2.342649;0.7522926;2.336037;
637945173729157931;391.9172;2;1;4.5;0.1;2.2;1489;3.02216252518469;1.083289;1.691013;1.036311;1.683758;-0.9526277;0.9499994;-0.9361008;0.9634786;
637945173742127521;393.2166;2;1;4.5;0.1;2.2;1299;3.46420323325635;-1.083289;1.691012;-1.082005;1.659034;1.083289;1.691013;1.036311;1.683758;
637945173763250659;395.3275;2;1;4.5;0.1;2.2;2111;2.13169114163903;0.9526281;0.9500003;0.9334062;0.9586623;-1.083289;1.691012;-1.082005;1.659034;
637945173775353130;396.5387;2;1;4.5;0.1;2.2;1211;3.7159372419488;-0.7070671;2.342648;-0.6691003;2.342413;0.9526281;0.9500003;0.9334062;0.9586623;
637945173786175120;397.6213;2;1;4.5;0.1;2.2;1083;4.15512465373961;0.3762226;0.4663382;0.4022496;0.4409858;-0.7070671;2.342648;-0.6691003;2.342413;
637945173802198071;399.2236;2;1;2;0.6;1.8;803;2.4906600249066;-0.3078177;0.6542765;-0.2552849;0.9460385;0;2.4;0.04561269;2.3146;
637945173815330501;400.5361;2;1;2;0.6;1.8;1313;1.52322924600152;0.5785087;2.18944;0.4530642;2.136198;-0.3078177;0.6542765;-0.2552849;0.9460385;
637945173829213232;401.9247;2;1;2;0.6;1.8;1389;1.43988480921526;-0.7794226;1.05;-0.5479697;1.105967;0.5785087;2.18944;0.4530642;2.136198;
637945173842200621;403.2238;2;1;2;0.6;1.8;1299;1.53964588144727;0.8863269;1.656283;0.7259295;1.607219;-0.7794226;1.05;-0.5479697;1.105967;
637945173852287482;404.2329;2;1;2;0.6;1.8;1009;1.98216055500496;-0.8863271;1.656283;-0.9022734;1.630251;0.8863269;1.656283;0.7259295;1.607219;
637945173861204316;405.1218;2;1;2;0.6;1.8;889;2.24971878515186;0.779423;1.05;0.8124422;1.235189;-0.8863271;1.656283;-0.9022734;1.630251;
637945173871276173;406.1315;2;1;2;0.6;1.8;1010;1.98019801980198;-0.5785094;2.18944;-0.6281528;2.189024;0.779423;1.05;0.8124422;1.235189;
637945173883168368;407.3203;2;1;2;0.6;1.8;1189;1.68208578637511;0.3078185;0.6542768;0.2732405;0.8869554;-0.5785094;2.18944;-0.6281528;2.189024;
637945173906257624;409.6295;2;1;3;0.2;1.4;1199;2.50208507089241;-0.2394138;0.8422151;-0.2254754;0.9054277;0;2.2;0.007690044;2.239028;
637945173916253353;410.6289;2;1;3;0.2;1.4;1000;3;0.4499513;2.036231;0.4322388;2.059437;-0.2394138;0.8422151;-0.2254754;0.9054277;
637945173926225198;411.6263;2;1;3;0.2;1.4;997;3.00902708124373;-0.6062176;1.15;-0.6075506;1.135054;0.4499513;2.036231;0.4322388;2.059437;
637945173934811957;412.496;2;1;3;0.2;1.4;870;3.44827586206897;0.6893654;1.621554;0.6922795;1.561182;-0.6062176;1.15;-0.6075506;1.135054;
637945173944358723;413.4388;2;1;3;0.2;1.4;943;3.1813361611877;-0.6893655;1.621553;-0.6926883;1.598471;0.6893654;1.621554;0.6922795;1.561182;
637945173953235348;414.327;2;1;3;0.2;1.4;888;3.37837837837838;0.6062179;1.15;0.5693474;1.202072;-0.6893655;1.621553;-0.6926883;1.598471;
637945173963257198;415.3286;2;1;3;0.2;1.4;1002;2.9940119760479;-0.4499517;2.036231;-0.4583097;2.084338;0.6062179;1.15;0.5693474;1.202072;
637945173995279153;418.5305;2;1;3;0.2;1.4;3202;0.936914428482199;0.2394144;0.8422153;0.2388123;0.857933;-0.4499517;2.036231;-0.4583097;2.084338;
637945174012208646;420.2245;2;1;1.5;1.1;2;889;1.68728908886389;-0.3420197;0.5603072;-0.183736;0.9979952;0;2.5;0.07583315;2.260484;
637945174020432711;421.0462;2;1;1.5;1.1;2;822;1.82481751824818;0.6427875;2.266045;0.5428401;2.160476;-0.3420197;0.5603072;-0.183736;0.9979952;
637945174029334352;421.9365;2;1;1.5;1.1;2;890;1.68539325842697;-0.8660251;0.9999995;-0.7241123;1.325305;0.6427875;2.266045;0.5428401;2.160476;
637945174039246184;422.9281;2;1;1.5;1.1;2;992;1.51209677419355;0.9848077;1.673648;0.7162701;1.678424;-0.8660251;0.9999995;-0.7241123;1.325305;
637945174047407687;423.7443;2;1;1.5;1.1;2;816;1.83823529411765;-0.9848078;1.673648;-0.7052233;1.713743;0.9848077;1.673648;0.7162701;1.678424;
637945174059404898;424.9439;2;1;1.5;1.1;2;1200;1.25;0.8660256;1;0.5752165;1.268518;-0.9848078;1.673648;-0.7052233;1.713743;
637945174070406926;426.0432;2;1;1.5;1.1;2;1099;1.36487716105551;-0.6427882;2.266044;-0.4109938;2.031228;0.8660256;1;0.5752165;1.268518;
637945174085390286;427.5425;2;1;1.5;1.1;2;1499;1.00066711140761;0.3420205;0.5603075;0.2626152;1.025474;-0.6427882;2.266044;-0.4109938;2.031228;
637945174117799396;430.794;2;1;4;0.1;1.4;1298;3.08166409861325;-0.2394138;0.8422151;-0.2138404;0.882774;0;2.2;0.009947125;2.152201;
637945174137368264;432.7399;2;1;4;0.1;1.4;1946;2.05549845837616;0.4499513;2.036231;0.4302189;2.024179;-0.2394138;0.8422151;-0.2138404;0.882774;
637945174150310660;434.0343;2;1;4;0.1;1.4;1294;3.09119010819165;-0.6062176;1.15;-0.5993371;1.119113;0.4499513;2.036231;0.4302189;2.024179;
637945174158482165;434.8518;2;1;4;0.1;1.4;818;4.88997555012225;0.6893654;1.621554;0.714124;1.646701;-0.6062176;1.15;-0.5993371;1.119113;
637945174176025394;436.6169;2;1;4;0.1;1.4;1765;2.26628895184136;-0.6893655;1.621553;-0.6482203;1.604753;0.6893654;1.621554;0.714124;1.646701;
637945174200309878;439.0342;2;1;4;0.1;1.4;2417;1.65494414563508;0.6062179;1.15;0.6310905;1.176025;-0.6893655;1.621553;-0.6482203;1.604753;
637945174223456511;441.3488;2;1;4;0.1;1.4;2315;1.72786177105832;-0.4499517;2.036231;-0.4781224;2.023499;0.6062179;1.15;0.6310905;1.176025;
637945174236658942;442.6691;2;1;4;0.1;1.4;1320;3.03030303030303;0.2394144;0.8422153;0.2220429;0.8682479;-0.4499517;2.036231;-0.4781224;2.023499;
637945174994734718;518.4758;2;2;4.5;0.1;2.2;1586;2.83732660781841;-0.3762217;0.4663379;-0.3766226;0.5135128;0;2.6;-0.03937367;2.590875;
637945175028122868;521.8256;2;2;4.5;0.1;2.2;3350;1.34328358208955;0.7070663;2.342649;0.702591;2.292886;-0.3762217;0.4663379;-0.3766226;0.5135128;
637945175042715922;523.274;2;2;4.5;0.1;2.2;1448;3.10773480662983;-0.9526277;0.9499994;-0.9307999;0.9841381;0.7070663;2.342649;0.702591;2.292886;
637945175057478647;524.7614;2;2;4.5;0.1;2.2;1487;3.02622730329522;1.083289;1.691013;1.117183;1.682318;-0.9526277;0.9499994;-0.9307999;0.9841381;
637945175069695897;525.972;2;2;4.5;0.1;2.2;1211;3.7159372419488;-1.083289;1.691012;-1.096218;1.692919;1.083289;1.691013;1.117183;1.682318;
637945175085703856;527.5724;2;2;4.5;0.1;2.2;1600;2.8125;0.9526281;0.9500003;0.9609516;0.9993024;-1.083289;1.691012;-1.096218;1.692919;
637945175100681617;529.0705;2;2;4.5;0.1;2.2;1498;3.00400534045394;-0.7070671;2.342648;-0.7158798;2.30274;0.9526281;0.9500003;0.9609516;0.9993024;
637945175113749022;530.3768;2;2;4.5;0.1;2.2;1306;3.44563552833078;0.3762226;0.4663382;0.3548502;0.4953074;-0.7070671;2.342648;-0.7158798;2.30274;
637945175143776360;533.3802;2;2;2;0.6;1.8;801;2.49687890137328;-0.3078177;0.6542765;-0.2328889;0.9050457;0;2.4;0.02937857;2.299882;
637945175152743012;534.2764;2;2;2;0.6;1.8;896;2.23214285714286;0.5785087;2.18944;0.5968335;2.188053;-0.3078177;0.6542765;-0.2328889;0.9050457;
637945175161769823;535.1788;2;2;2;0.6;1.8;902;2.21729490022173;-0.7794226;1.05;-0.698162;1.224652;0.5785087;2.18944;0.5968335;2.188053;
637945175173872049;536.3896;2;2;2;0.6;1.8;1211;1.65152766308836;0.8863269;1.656283;0.6440375;1.603444;-0.7794226;1.05;-0.698162;1.224652;
637945175184904083;537.4913;2;2;2;0.6;1.8;1102;1.81488203266788;-0.8863271;1.656283;-0.7606087;1.601474;0.8863269;1.656283;0.6440375;1.603444;
637945175199860362;538.9887;2;2;2;0.6;1.8;1497;1.33600534402138;0.779423;1.05;0.5724742;1.177637;-0.8863271;1.656283;-0.7606087;1.601474;
637945175212898103;540.2904;2;2;2;0.6;1.8;1302;1.53609831029186;-0.5785094;2.18944;-0.4970928;2.144299;0.779423;1.05;0.5724742;1.177637;
637945175223760116;541.3779;2;2;2;0.6;1.8;1088;1.83823529411765;0.3078185;0.6542768;0.2966147;0.8447624;-0.5785094;2.18944;-0.4970928;2.144299;
637945175247844547;543.7869;2;2;3.5;0.2;2;1309;2.67379679144385;-0.3420197;0.5603072;-0.3434922;0.5785434;0;2.5;-0.04058415;2.448976;
637945175264937700;545.4963;2;2;3.5;0.2;2;1709;2.04798127559977;0.6427875;2.266045;0.577553;2.209848;-0.3420197;0.5603072;-0.3434922;0.5785434;
637945175275834710;546.586;2;2;3.5;0.2;2;1090;3.21100917431193;-0.8660251;0.9999995;-0.8098509;0.9483335;0.6427875;2.266045;0.577553;2.209848;
637945175286851739;547.686;2;2;3.5;0.2;2;1100;3.18181818181818;0.9848077;1.673648;0.9753101;1.666875;-0.8660251;0.9999995;-0.8098509;0.9483335;
637945175295968424;548.5967;2;2;3.5;0.2;2;911;3.84193194291987;-0.9848078;1.673648;-0.9123562;1.734749;0.9848077;1.673648;0.9753101;1.666875;
637945175307915628;549.7939;2;2;3.5;0.2;2;1197;2.92397660818713;0.8660256;1;0.8036129;1.04241;-0.9848078;1.673648;-0.9123562;1.734749;
637945175319913035;550.9935;2;2;3.5;0.2;2;1200;2.91666666666667;-0.6427882;2.266044;-0.6147615;2.186325;0.8660256;1;0.8036129;1.04241;
637945175330820254;552.0838;2;2;3.5;0.2;2;1090;3.21100917431193;0.3420205;0.5603075;0.3301936;0.5542132;-0.6427882;2.266044;-0.6147615;2.186325;
637945175349790841;553.9814;2;2;2.5;0.3;1.4;887;2.8184892897407;-0.2394138;0.8422151;-0.17321;0.8478999;0;2.2;-0.03505096;2.184355;
637945175360797870;555.0801;2;2;2.5;0.3;1.4;1099;2.27479526842584;0.4499513;2.036231;0.416653;1.959021;-0.2394138;0.8422151;-0.17321;0.8478999;
637945175371790283;556.181;2;2;2.5;0.3;1.4;1101;2.27066303360581;-0.6062176;1.15;-0.6405632;1.198065;0.4499513;2.036231;0.416653;1.959021;
637945175381787128;557.1811;2;2;2.5;0.3;1.4;1000;2.5;0.6893654;1.621554;0.6939929;1.61546;-0.6062176;1.15;-0.6405632;1.198065;
637945175389973639;557.999;2;2;2.5;0.3;1.4;818;3.05623471882641;-0.6893655;1.621553;-0.7948776;1.591926;0.6893654;1.621554;0.6939929;1.61546;
637945175398860278;558.8882;2;2;2.5;0.3;1.4;889;2.81214848143982;0.6062179;1.15;0.5693795;1.171442;-0.6893655;1.621553;-0.7948776;1.591926;
637945175419864152;560.9886;2;2;2.5;0.3;1.4;2100;1.19047619047619;-0.4499517;2.036231;-0.440682;2.032312;0.6062179;1.15;0.5693795;1.171442;
637945175432856551;562.2878;2;2;2.5;0.3;1.4;1299;1.92455735180908;0.2394144;0.8422153;0.2479196;0.8878145;-0.4499517;2.036231;-0.440682;2.032312;
637945175476848679;566.6868;2;2;4;0.1;1.4;3242;1.23380629241209;-0.2394138;0.8422151;-0.2630171;0.8318536;0;2.2;-0.00826307;2.233596;
637945175493846812;568.3866;2;2;4;0.1;1.4;1700;2.35294117647059;0.4499513;2.036231;0.4836293;2.026681;-0.2394138;0.8422151;-0.2630171;0.8318536;
637945175508857415;569.886;2;2;4;0.1;1.4;1499;2.66844563042028;-0.6062176;1.15;-0.6091097;1.175659;0.4499513;2.036231;0.4836293;2.026681;
637945175522824989;571.2846;2;2;4;0.1;1.4;1399;2.85918513223731;0.6893654;1.621554;0.7142897;1.617176;-0.6062176;1.15;-0.6091097;1.175659;
637945175533927045;572.3946;2;2;4;0.1;1.4;1110;3.6036036036036;-0.6893655;1.621553;-0.6661327;1.624936;0.6893654;1.621554;0.7142897;1.617176;
637945175546394339;573.652;2;2;4;0.1;1.4;1257;3.18217979315831;0.6062179;1.15;0.5625858;1.16654;-0.6893655;1.621553;-0.6661327;1.624936;
637945175560942025;575.0947;2;2;4;0.1;1.4;1443;2.77200277200277;-0.4499517;2.036231;-0.450479;2.010661;0.6062179;1.15;0.5625858;1.16654;
637945175574858192;576.4871;2;2;4;0.1;1.4;1392;2.8735632183908;0.2394144;0.8422153;0.2296236;0.8280106;-0.4499517;2.036231;-0.450479;2.010661;
637945175597917444;578.7936;2;2;1.5;1.1;2;1308;1.14678899082569;-0.3420197;0.5603072;-0.1557161;1.045377;0;2.5;0.0667342;2.296934;
637945175606914104;579.6921;2;2;1.5;1.1;2;898;1.67037861915367;0.6427875;2.266045;0.5002992;2.120677;-0.3420197;0.5603072;-0.1557161;1.045377;
637945175621968571;581.1978;2;2;1.5;1.1;2;1506;0.99601593625498;-0.8660251;0.9999995;-0.5827591;1.30261;0.6427875;2.266045;0.5002992;2.120677;
637945175639981899;583.0001;2;2;1.5;1.1;2;1802;0.832408435072142;0.9848077;1.673648;0.6356801;1.645576;-0.8660251;0.9999995;-0.5827591;1.30261;
637945175651864087;584.1884;2;2;1.5;1.1;2;1188;1.26262626262626;-0.9848078;1.673648;-0.7365784;1.717801;0.9848077;1.673648;0.6356801;1.645576;
637945175660895745;585.0898;2;2;1.5;1.1;2;901;1.66481687014428;0.8660256;1;0.6698437;1.258201;-0.9848078;1.673648;-0.7365784;1.717801;
637945175676983717;586.6998;2;2;1.5;1.1;2;1610;0.93167701863354;-0.6427882;2.266044;-0.3794698;1.994429;0.8660256;1;0.6698437;1.258201;
637945175686870540;587.6893;2;2;1.5;1.1;2;990;1.51515151515152;0.3420205;0.5603075;0.2343257;0.9603114;-0.6427882;2.266044;-0.3794698;1.994429;
637945175712060188;590.2078;2;2;3;0.2;1.4;1415;2.12014134275618;-0.2394138;0.8422151;-0.2174527;0.9053311;0;2.2;-0.0390394;2.156482;
637945175722942414;591.2964;2;2;3;0.2;1.4;1089;2.75482093663912;0.4499513;2.036231;0.3713033;2.054895;-0.2394138;0.8422151;-0.2174527;0.9053311;
637945175734929863;592.4951;2;2;3;0.2;1.4;1199;2.50208507089241;-0.6062176;1.15;-0.5490766;1.129486;0.4499513;2.036231;0.3713033;2.054895;
637945175744926704;593.4948;2;2;3;0.2;1.4;1000;3;0.6893654;1.621554;0.6431421;1.659783;-0.6062176;1.15;-0.5490766;1.129486;
637945175754948552;594.4954;2;2;3;0.2;1.4;1001;2.997002997003;-0.6893655;1.621553;-0.7031726;1.632132;0.6893654;1.621554;0.6431421;1.659783;
637945175770896491;596.0894;2;2;3;0.2;1.4;1594;1.88205771643664;0.6062179;1.15;0.5182831;1.189184;-0.6893655;1.621553;-0.7031726;1.632132;
637945175781933532;597.1954;2;2;3;0.2;1.4;1106;2.7124773960217;-0.4499517;2.036231;-0.4666147;2.066349;0.6062179;1.15;0.5182831;1.189184;
637945175793935337;598.3954;2;2;3;0.2;1.4;1200;2.5;0.2394144;0.8422153;0.2293537;0.8888148;-0.4499517;2.036231;-0.4666147;2.066349;
637945176589324537;677.9328;2;3;2.5;0.3;1.4;1101;2.27066303360581;-0.2394138;0.8422151;-0.2106862;0.8358099;0;2.2;-0.04971424;2.211124;
637945176599411398;678.9419;2;3;2.5;0.3;1.4;1009;2.47770069375619;0.4499513;2.036231;0.3890091;2.006189;-0.2394138;0.8422151;-0.2106862;0.8358099;
637945176611288582;680.13;2;3;2.5;0.3;1.4;1188;2.1043771043771;-0.6062176;1.15;-0.5403343;1.167415;0.4499513;2.036231;0.3890091;2.006189;
637945176621315436;681.1315;2;3;2.5;0.3;1.4;1002;2.49500998003992;0.6893654;1.621554;0.7435111;1.625313;-0.6062176;1.15;-0.5403343;1.167415;
637945176630402111;682.0404;2;3;2.5;0.3;1.4;909;2.75027502750275;-0.6893655;1.621553;-0.63005;1.651786;0.6893654;1.621554;0.7435111;1.625313;
637945176640303936;683.0315;2;3;2.5;0.3;1.4;991;2.52270433905146;0.6062179;1.15;0.5632082;1.137089;-0.6893655;1.621553;-0.63005;1.651786;
637945176649325598;683.934;2;3;2.5;0.3;1.4;903;2.76854928017719;-0.4499517;2.036231;-0.4450526;2.001481;0.6062179;1.15;0.5632082;1.137089;
637945176658612757;684.8619;2;3;2.5;0.3;1.4;928;2.69396551724138;0.2394144;0.8422153;0.2253146;0.9121683;-0.4499517;2.036231;-0.4450526;2.001481;
637945176692364148;688.2371;2;3;4;0.1;1.4;1298;3.08166409861325;-0.2394138;0.8422151;-0.2434974;0.8583735;0;2.2;0.01525057;2.20135;
637945176706356897;689.6365;2;3;4;0.1;1.4;1399;2.85918513223731;0.4499513;2.036231;0.461636;1.994146;-0.2394138;0.8422151;-0.2434974;0.8583735;
637945176720464880;691.047;2;3;4;0.1;1.4;1411;2.83486888731396;-0.6062176;1.15;-0.6097148;1.105076;0.4499513;2.036231;0.461636;1.994146;
637945176732017443;692.2131;2;3;4;0.1;1.4;1166;3.43053173241852;0.6893654;1.621554;0.7316486;1.618595;-0.6062176;1.15;-0.6097148;1.105076;
637945176742794569;693.2912;2;3;4;0.1;1.4;1078;3.71057513914657;-0.6893655;1.621553;-0.6490896;1.60331;0.6893654;1.621554;0.7316486;1.618595;
637945176757452467;694.7456;2;3;4;0.1;1.4;1454;2.75103163686382;0.6062179;1.15;0.5998908;1.185548;-0.6893655;1.621553;-0.6490896;1.60331;
637945176772785296;696.2899;2;3;4;0.1;1.4;1544;2.59067357512953;-0.4499517;2.036231;-0.433569;1.989824;0.6062179;1.15;0.5998908;1.185548;
637945176787422992;697.743;2;3;4;0.1;1.4;1453;2.75292498279422;0.2394144;0.8422153;0.2583773;0.8554339;-0.4499517;2.036231;-0.433569;1.989824;
637945176813414105;700.3419;2;3;4.5;0.1;2.2;1386;3.24675324675325;-0.3762217;0.4663379;-0.3982954;0.4374502;0;2.6;-0.01528975;2.612494;
637945176825406315;701.5413;2;3;4.5;0.1;2.2;1199;3.75312760633862;0.7070663;2.342649;0.7125853;2.308248;-0.3762217;0.4663379;-0.3982954;0.4374502;
637945176836558369;702.6547;2;3;4.5;0.1;2.2;1113;4.04312668463612;-0.9526277;0.9499994;-0.917652;0.9636378;0.7070663;2.342649;0.7125853;2.308248;
637945176855516868;704.5525;2;3;4.5;0.1;2.2;1898;2.3709167544784;1.083289;1.691013;1.08074;1.677167;-0.9526277;0.9499994;-0.917652;0.9636378;
637945176867402134;705.7407;2;3;4.5;0.1;2.2;1188;3.78787878787879;-1.083289;1.691012;-1.068753;1.657774;1.083289;1.691013;1.08074;1.677167;
637945176910508820;710.0494;2;3;4.5;0.1;2.2;4309;1.04432582965885;0.9526281;0.9500003;0.9623311;0.9320261;-1.083289;1.691012;-1.068753;1.657774;
637945176926821824;711.6938;2;3;4.5;0.1;2.2;1644;2.73722627737226;-0.7070671;2.342648;-0.6765627;2.38015;0.9526281;0.9500003;0.9623311;0.9320261;
637945176941469529;713.1473;2;3;4.5;0.1;2.2;1453;3.0970406056435;0.3762226;0.4663382;0.3534999;0.5070224;-0.7070671;2.342648;-0.6765627;2.38015;
637945176956466464;714.6471;2;3;1.5;1.1;2;601;2.49584026622296;-0.3420197;0.5603072;-0.1066986;1.055744;0;2.5;0.06620723;2.28741;
637945176963447747;715.345;2;3;1.5;1.1;2;698;2.14899713467049;0.6427875;2.266045;0.4720271;1.950152;-0.3420197;0.5603072;-0.1066986;1.055744;
637945176969453860;715.9453;2;3;1.5;1.1;2;600;2.5;-0.8660251;0.9999995;-0.5400441;1.370563;0.6427875;2.266045;0.4720271;1.950152;
637945176977465338;716.7473;2;3;1.5;1.1;2;802;1.87032418952618;0.9848077;1.673648;0.8570001;1.636333;-0.8660251;0.9999995;-0.5400441;1.370563;
637945176983461443;717.3462;2;3;1.5;1.1;2;599;2.50417362270451;-0.9848078;1.673648;-0.7140999;1.595076;0.9848077;1.673648;0.8570001;1.636333;
637945176989486988;717.949;2;3;1.5;1.1;2;603;2.48756218905473;0.8660256;1;0.4911765;1.230956;-0.9848078;1.673648;-0.7140999;1.595076;
637945176995558273;718.5563;2;3;1.5;1.1;2;607;2.47116968698517;-0.6427882;2.266044;-0.3702755;1.919468;0.8660256;1;0.4911765;1.230956;
637945177004685162;719.468;2;3;1.5;1.1;2;912;1.64473684210526;0.3420205;0.5603075;0.2996891;0.9555374;-0.6427882;2.266044;-0.3702755;1.919468;
637945177039536589;722.954;2;3;3;0.2;1.4;1897;1.58144438587243;-0.2394138;0.8422151;-0.2102345;0.9050151;0;2.2;-0.03227175;2.12499;
637945177052458970;724.2463;2;3;3;0.2;1.4;1292;2.32198142414861;0.4499513;2.036231;0.4224881;2.033146;-0.2394138;0.8422151;-0.2102345;0.9050151;
637945177062650851;725.2644;2;3;3;0.2;1.4;1018;2.94695481335953;-0.6062176;1.15;-0.5508153;1.071901;0.4499513;2.036231;0.4224881;2.033146;
637945177071527491;726.1533;2;3;3;0.2;1.4;889;3.37457817772778;0.6893654;1.621554;0.6328509;1.630793;-0.6062176;1.15;-0.5508153;1.071901;
637945177083609718;727.3617;2;3;3;0.2;1.4;1208;2.48344370860927;-0.6893655;1.621553;-0.6093429;1.56848;0.6893654;1.621554;0.6328509;1.630793;
637945177092611374;728.2618;2;3;3;0.2;1.4;900;3.33333333333333;0.6062179;1.15;0.6399513;1.239576;-0.6893655;1.621553;-0.6093429;1.56848;
637945177102643432;729.2634;2;3;3;0.2;1.4;1002;2.9940119760479;-0.4499517;2.036231;-0.4286111;1.992029;0.6062179;1.15;0.6399513;1.239576;
637945177111812796;730.1799;2;3;3;0.2;1.4;917;3.27153762268266;0.2394144;0.8422153;0.2500708;0.8851559;-0.4499517;2.036231;-0.4286111;1.992029;
637945177134501984;732.4506;2;3;3.5;0.2;2;1188;2.94612794612795;-0.3420197;0.5603072;-0.3436923;0.6268691;0;2.5;-0.0217358;2.412703;
637945177145489014;733.5496;2;3;3.5;0.2;2;1099;3.18471337579618;0.6427875;2.266045;0.5872912;2.236316;-0.3420197;0.5603072;-0.3436923;0.6268691;
637945177156501061;734.6489;2;3;3.5;0.2;2;1099;3.18471337579618;-0.8660251;0.9999995;-0.8481724;1.007038;0.6427875;2.266045;0.5872912;2.236316;
637945177165692739;735.5694;2;3;3.5;0.2;2;921;3.80021715526602;0.9848077;1.673648;1.002946;1.657102;-0.8660251;0.9999995;-0.8481724;1.007038;
637945177174134295;736.4248;2;3;3.5;0.2;2;855;4.09356725146199;-0.9848078;1.673648;-0.8855585;1.684987;0.9848077;1.673648;1.002946;1.657102;
637945177186526583;737.6533;2;3;3.5;0.2;2;1229;2.84784377542718;0.8660256;1;0.8652085;1.052821;-0.9848078;1.673648;-0.8855585;1.684987;
637945177201564353;739.1568;2;3;3.5;0.2;2;1503;2.32867598137059;-0.6427882;2.266044;-0.6172435;2.266463;0.8660256;1;0.8652085;1.052821;
637945177218592710;740.858;2;3;3.5;0.2;2;1701;2.05761316872428;0.3420205;0.5603075;0.3239444;0.6463258;-0.6427882;2.266044;-0.6172435;2.266463;
637945177240546759;743.0548;2;3;2;0.6;1.8;1089;1.83654729109275;-0.3078177;0.6542765;-0.1728103;0.8260025;0;2.4;0.05627547;2.293569;
637945177250578608;744.0571;2;3;2;0.6;1.8;1002;1.99600798403194;0.5785087;2.18944;0.5529118;2.140623;-0.3078177;0.6542765;-0.1728103;0.8260025;
637945177260550315;745.0558;2;3;2;0.6;1.8;999;2.002002002002;-0.7794226;1.05;-0.6666875;1.156733;0.5785087;2.18944;0.5529118;2.140623;
637945177268536792;745.8538;2;3;2;0.6;1.8;798;2.5062656641604;0.8863269;1.656283;0.7922485;1.675611;-0.7794226;1.05;-0.6666875;1.156733;
637945177278653655;746.8649;2;3;2;0.6;1.8;1011;1.9782393669634;-0.8863271;1.656283;-0.7928308;1.704907;0.8863269;1.656283;0.7922485;1.675611;
637945177286665133;747.664;2;3;2;0.6;1.8;799;2.50312891113892;0.779423;1.05;0.8940703;1.136936;-0.8863271;1.656283;-0.7928308;1.704907;
637945177295526768;748.5532;2;3;2;0.6;1.8;889;2.24971878515186;-0.5785094;2.18944;-0.5264685;2.090693;0.779423;1.05;0.8940703;1.136936;
637945177303528243;749.3532;2;3;2;0.6;1.8;800;2.5;0.3078185;0.6542768;0.2987632;0.9388406;-0.5785094;2.18944;-0.5264685;2.090693;
637945178532034623;872.2022;2;4;3.5;0.2;2;910;3.84615384615385;-0.3420197;0.5603072;-0.3117088;0.5915922;0;2.5;0.01307445;2.406907;
637945178546056263;873.6028;2;4;3.5;0.2;2;1401;2.49821556031406;0.6427875;2.266045;0.5678382;2.219254;-0.3420197;0.5603072;-0.3117088;0.5915922;
637945178557023619;874.7012;2;4;3.5;0.2;2;1098;3.18761384335155;-0.8660251;0.9999995;-0.8272609;0.9775557;0.6427875;2.266045;0.5678382;2.219254;
637945178565940259;875.5937;2;4;3.5;0.2;2;892;3.9237668161435;0.9848077;1.673648;0.9713742;1.700528;-0.8660251;0.9999995;-0.8272609;0.9775557;
637945178576037122;876.602;2;4;3.5;0.2;2;1008;3.47222222222222;-0.9848078;1.673648;-1.005572;1.661883;0.9848077;1.673648;0.9713742;1.700528;
637945178586004187;877.5998;2;4;3.5;0.2;2;998;3.50701402805611;0.8660256;1;0.8303391;0.9767498;-0.9848078;1.673648;-1.005572;1.661883;
637945178596123124;878.611;2;4;3.5;0.2;2;1011;3.46191889218595;-0.6427882;2.266044;-0.6568891;2.223756;0.8660256;1;0.8303391;0.9767498;
637945178604024588;879.4008;2;4;3.5;0.2;2;790;4.43037974683544;0.3420205;0.5603075;0.4088999;0.5306995;-0.6427882;2.266044;-0.6568891;2.223756;
637945178626933964;881.6927;2;4;2;0.6;1.8;1597;1.25234815278647;-0.3078177;0.6542765;-0.3000013;0.7776625;0;2.4;0.09140982;2.263488;
637945178635995634;882.5987;2;4;2;0.6;1.8;906;2.2075055187638;0.5785087;2.18944;0.5426131;2.13405;-0.3078177;0.6542765;-0.3000013;0.7776625;
637945178644087129;883.4078;2;4;2;0.6;1.8;809;2.47218788627936;-0.7794226;1.05;-0.9811628;1.207654;0.5785087;2.18944;0.5426131;2.13405;
637945178652083599;884.2072;2;4;2;0.6;1.8;799;2.50312891113892;0.8863269;1.656283;0.7711356;1.643436;-0.7794226;1.05;-0.9811628;1.207654;
637945178658968180;884.8961;2;4;2;0.6;1.8;689;2.90275761973875;-0.8863271;1.656283;-0.7453748;1.649577;0.8863269;1.656283;0.7711356;1.643436;
637945178666009482;885.5995;2;4;2;0.6;1.8;704;2.84090909090909;0.779423;1.05;0.7185262;1.27873;-0.8863271;1.656283;-0.7453748;1.649577;
637945178673025777;886.3013;2;4;2;0.6;1.8;702;2.84900284900285;-0.5785094;2.18944;-0.5054677;1.973403;0.779423;1.05;0.7185262;1.27873;
637945178680967236;887.0955;2;4;2;0.6;1.8;794;2.51889168765743;0.3078185;0.6542768;0.3045931;0.7560217;-0.5785094;2.18944;-0.5054677;1.973403;
637945178709976687;889.9958;2;4;4.5;0.1;2.2;1199;3.75312760633862;-0.3762217;0.4663379;-0.3359099;0.4530784;0;2.6;-0.01656014;2.566495;
637945178725414532;891.5513;2;4;4.5;0.1;2.2;1555;2.89389067524116;0.7070663;2.342649;0.6913371;2.29519;-0.3762217;0.4663379;-0.3359099;0.4530784;
637945178746043565;893.6033;2;4;4.5;0.1;2.2;2052;2.19298245614035;-0.9526277;0.9499994;-0.9441459;0.9464065;0.7070663;2.342649;0.6913371;2.29519;
637945178761796473;895.1897;2;4;4.5;0.1;2.2;1586;2.83732660781841;1.083289;1.691013;1.120212;1.675216;-0.9526277;0.9499994;-0.9441459;0.9464065;
637945178779029177;896.9014;2;4;4.5;0.1;2.2;1712;2.6285046728972;-1.083289;1.691012;-1.073775;1.691187;1.083289;1.691013;1.120212;1.675216;
637945178795015191;898.5005;2;4;4.5;0.1;2.2;1599;2.81425891181989;0.9526281;0.9500003;0.9300634;0.9929813;-1.083289;1.691012;-1.073775;1.691187;
637945178813012099;900.3004;2;4;4.5;0.1;2.2;1800;2.5;-0.7070671;2.342648;-0.6781898;2.325477;0.9526281;0.9500003;0.9300634;0.9929813;
637945178830997309;902.0986;2;4;4.5;0.1;2.2;1798;2.5027808676307;0.3762226;0.4663382;0.3669696;0.4839523;-0.7070671;2.342648;-0.6781898;2.325477;
637945178848214637;903.8203;2;4;2.5;0.3;1.4;819;3.05250305250305;-0.2394138;0.8422151;-0.2155137;0.8908324;0;2.2;0.06228508;2.178921;
637945178862007583;905.1989;2;4;2.5;0.3;1.4;1379;1.81290790427846;0.4499513;2.036231;0.4077024;1.957291;-0.2394138;0.8422151;-0.2155137;0.8908324;
637945178871094257;906.1075;2;4;2.5;0.3;1.4;909;2.75027502750275;-0.6062176;1.15;-0.6064948;1.225639;0.4499513;2.036231;0.4077024;1.957291;
637945178880080916;907.0068;2;4;2.5;0.3;1.4;899;2.78086763070078;0.6893654;1.621554;0.7309202;1.6592;-0.6062176;1.15;-0.6064948;1.225639;
637945178888042383;907.802;2;4;2.5;0.3;1.4;795;3.14465408805031;-0.6893655;1.621553;-0.7505144;1.593902;0.6893654;1.621554;0.7309202;1.6592;
637945178895303723;908.5294;2;4;2.5;0.3;1.4;727;3.43878954607978;0.6062179;1.15;0.7416672;1.124222;-0.6893655;1.621553;-0.7505144;1.593902;
637945178904085343;909.4072;2;4;2.5;0.3;1.4;878;2.84738041002278;-0.4499517;2.036231;-0.4103903;2.005143;0.6062179;1.15;0.7416672;1.124222;
637945178915187392;910.5176;2;4;2.5;0.3;1.4;1110;2.25225225225225;0.2394144;0.8422153;0.2470517;0.9492692;-0.4499517;2.036231;-0.4103903;2.005143;
637945178941736835;913.1835;2;4;4;0.1;1.4;1578;2.53485424588086;-0.2394138;0.8422151;-0.2013329;0.8744204;0;2.2;0.02393164;2.222534;
637945178957189684;914.7159;2;4;4;0.1;1.4;1532;2.61096605744125;0.4499513;2.036231;0.4612604;2.030528;-0.2394138;0.8422151;-0.2013329;0.8744204;
637945178974067798;916.4048;2;4;4;0.1;1.4;1689;2.36826524570752;-0.6062176;1.15;-0.588572;1.163181;0.4499513;2.036231;0.4612604;2.030528;
637945178984149658;917.4136;2;4;4;0.1;1.4;1009;3.96432111000991;0.6893654;1.621554;0.6485987;1.626595;-0.6062176;1.15;-0.588572;1.163181;
637945178999192142;918.9162;2;4;4;0.1;1.4;1503;2.66134397870925;-0.6893655;1.621553;-0.6654124;1.591646;0.6893654;1.621554;0.6485987;1.626595;
637945179015030067;920.5015;2;4;4;0.1;1.4;1585;2.52365930599369;0.6062179;1.15;0.5743197;1.145931;-0.6893655;1.621553;-0.6654124;1.591646;
637945179031128030;922.1105;2;4;4;0.1;1.4;1609;2.48601615910503;-0.4499517;2.036231;-0.4289283;2.018764;0.6062179;1.15;0.5743197;1.145931;
637945179045063335;923.5047;2;4;4;0.1;1.4;1394;2.86944045911047;0.2394144;0.8422153;0.2400625;0.8833961;-0.4499517;2.036231;-0.4289283;2.018764;
637945179062112598;925.2097;2;4;1.5;1.1;2;988;1.51821862348178;-0.3420197;0.5603072;-0.1165742;1.001379;0;2.5;0.07356971;2.177453;
637945179068178717;925.8167;2;4;1.5;1.1;2;607;2.47116968698517;0.6427875;2.266045;0.3580936;1.905044;-0.3420197;0.5603072;-0.1165742;1.001379;
637945179076220199;926.6205;2;4;1.5;1.1;2;804;1.86567164179104;-0.8660251;0.9999995;-0.5817372;1.202002;0.6427875;2.266045;0.3580936;1.905044;
637945179082221306;927.2206;2;4;1.5;1.1;2;600;2.5;0.9848077;1.673648;0.7941192;1.658195;-0.8660251;0.9999995;-0.5817372;1.202002;
637945179089097568;927.9077;2;4;1.5;1.1;2;687;2.18340611353712;-0.9848078;1.673648;-0.7619677;1.67709;0.9848077;1.673648;0.7941192;1.658195;
637945179096392189;928.6372;2;4;1.5;1.1;2;729;2.05761316872428;0.8660256;1;0.7642574;1.220909;-0.9848078;1.673648;-0.7619677;1.67709;
637945179102273009;929.2258;2;4;1.5;1.1;2;589;2.54668930390492;-0.6427882;2.266044;-0.3462489;1.933034;0.8660256;1;0.7642574;1.220909;
637945179110079444;930.0069;2;4;1.5;1.1;2;781;1.92061459667093;0.3420205;0.5603075;0.2715071;0.8421377;-0.6427882;2.266044;-0.3462489;1.933034;
637945179126092599;931.6077;2;4;3;0.2;1.4;901;3.32963374028857;-0.2394138;0.8422151;-0.2137812;0.7961231;0;2.2;0.02975047;2.242153;
637945179135099493;932.5081;2;4;3;0.2;1.4;900;3.33333333333333;0.4499513;2.036231;0.4540023;2.03185;-0.2394138;0.8422151;-0.2137812;0.7961231;
637945179153287853;934.3272;2;4;3;0.2;1.4;1819;1.64925783397471;-0.6062176;1.15;-0.6358601;1.135546;0.4499513;2.036231;0.4540023;2.03185;
637945179163544898;935.3636;2;4;3;0.2;1.4;1036;2.8957528957529;0.6893654;1.621554;0.5937206;1.598426;-0.6062176;1.15;-0.6358601;1.135546;
637945179180277983;937.0264;2;4;3;0.2;1.4;1663;1.80396873120866;-0.6893655;1.621553;-0.6793613;1.572343;0.6893654;1.621554;0.5937206;1.598426;
637945179191305240;938.1278;2;4;3;0.2;1.4;1101;2.72479564032698;0.6062179;1.15;0.5540391;1.200996;-0.6893655;1.621553;-0.6793613;1.572343;
637945179204078752;939.4066;2;4;3;0.2;1.4;1279;2.34558248631744;-0.4499517;2.036231;-0.4157127;1.978003;0.6062179;1.15;0.5540391;1.200996;
637945179215410848;940.5369;2;4;3;0.2;1.4;1130;2.65486725663717;0.2394144;0.8422153;0.2327229;0.9226527;-0.4499517;2.036231;-0.4157127;1.978003;
637945179847645651;1003.76;2;5;2;0.6;1.8;813;2.460024600246;-0.3078177;0.6542765;-0.1802922;0.8857249;0;2.4;0.04277122;2.339996;
637945179855452092;1004.541;2;5;2;0.6;1.8;781;2.56081946222791;0.5785087;2.18944;0.6233115;2.156168;-0.3078177;0.6542765;-0.1802922;0.8857249;
637945179863448566;1005.339;2;5;2;0.6;1.8;798;2.5062656641604;-0.7794226;1.05;-0.6691695;1.066879;0.5785087;2.18944;0.6233115;2.156168;
637945179871445042;1006.139;2;5;2;0.6;1.8;800;2.5;0.8863269;1.656283;0.8470895;1.635614;-0.7794226;1.05;-0.6691695;1.066879;
637945179879631550;1006.959;2;5;2;0.6;1.8;820;2.4390243902439;-0.8863271;1.656283;-0.6555182;1.596207;0.8863269;1.656283;0.8470895;1.635614;
637945179887628026;1007.758;2;5;2;0.6;1.8;800;2.5;0.779423;1.05;0.8075219;1.197482;-0.8863271;1.656283;-0.6555182;1.596207;
637945179896539669;1008.646;2;5;2;0.6;1.8;888;2.25225225225225;-0.5785094;2.18944;-0.4494158;2.075365;0.779423;1.05;0.8075219;1.197482;
637945179906511508;1009.646;2;5;2;0.6;1.8;999;2.002002002002;0.3078185;0.6542768;0.2747559;0.8316793;-0.5785094;2.18944;-0.4494158;2.075365;
637945179930565946;1012.052;2;5;4;0.1;1.4;1207;3.31400165700083;-0.2394138;0.8422151;-0.2137991;0.8767549;0;2.2;-0.007126962;2.188842;
637945179940512779;1013.044;2;5;4;0.1;1.4;992;4.03225806451613;0.4499513;2.036231;0.435063;2.015221;-0.2394138;0.8422151;-0.2137991;0.8767549;
637945179955600563;1014.555;2;5;4;0.1;1.4;1511;2.64725347452019;-0.6062176;1.15;-0.5904525;1.144851;0.4499513;2.036231;0.435063;2.015221;
637945179975699269;1016.565;2;5;4;0.1;1.4;2010;1.99004975124378;0.6893654;1.621554;0.6864336;1.637448;-0.6062176;1.15;-0.5904525;1.144851;
637945179987091368;1017.715;2;5;4;0.1;1.4;1150;3.47826086956522;-0.6893655;1.621553;-0.6671512;1.585312;0.6893654;1.621554;0.6864336;1.637448;
637945179998628721;1018.855;2;5;4;0.1;1.4;1141;3.5056967572305;0.6062179;1.15;0.5615171;1.127933;-0.6893655;1.621553;-0.6671512;1.585312;
637945180014151756;1020.421;2;5;4;0.1;1.4;1566;2.55427841634738;-0.4499517;2.036231;-0.490855;2.020776;0.6062179;1.15;0.5615171;1.127933;
637945180024618688;1021.456;2;5;4;0.1;1.4;1035;3.86473429951691;0.2394144;0.8422153;0.2354655;0.8514736;-0.4499517;2.036231;-0.490855;2.020776;
637945180040596637;1023.052;2;5;2.5;0.3;1.4;799;3.12891113892365;-0.2394138;0.8422151;-0.1821419;0.9136472;0;2.2;0.01356814;2.224874;
637945180047662937;1023.761;2;5;2.5;0.3;1.4;710;3.52112676056338;0.4499513;2.036231;0.4530478;2.052943;-0.2394138;0.8422151;-0.1821419;0.9136472;
637945180055674413;1024.562;2;5;2.5;0.3;1.4;801;3.1210986267166;-0.6062176;1.15;-0.5991893;1.108007;0.4499513;2.036231;0.4530478;2.052943;
637945180063655887;1025.361;2;5;2.5;0.3;1.4;798;3.1328320802005;0.6893654;1.621554;0.7463236;1.620079;-0.6062176;1.15;-0.5991893;1.108007;
637945180071657365;1026.16;2;5;2.5;0.3;1.4;800;3.125;-0.6893655;1.621553;-0.6127017;1.640292;0.6893654;1.621554;0.7463236;1.620079;
637945180079648836;1026.96;2;5;2.5;0.3;1.4;799;3.12891113892365;0.6062179;1.15;0.6693751;1.17465;-0.6893655;1.621553;-0.6127017;1.640292;
637945180093636601;1028.359;2;5;2.5;0.3;1.4;1399;1.78699070764832;-0.4499517;2.036231;-0.3802344;1.94051;0.6062179;1.15;0.6693751;1.17465;
637945180102533242;1029.248;2;5;2.5;0.3;1.4;889;2.81214848143982;0.2394144;0.8422153;0.1367781;0.9025156;-0.4499517;2.036231;-0.3802344;1.94051;
637945180127622870;1031.757;2;5;4.5;0.1;2.2;1310;3.43511450381679;-0.3762217;0.4663379;-0.3870494;0.4578861;0;2.6;-0.02504327;2.567379;
637945180150762139;1034.07;2;5;4.5;0.1;2.2;2312;1.94636678200692;0.7070663;2.342649;0.6741204;2.329573;-0.3762217;0.4663379;-0.3870494;0.4578861;
637945180163359460;1035.342;2;5;4.5;0.1;2.2;1272;3.5377358490566;-0.9526277;0.9499994;-0.9056534;0.9671232;0.7070663;2.342649;0.6741204;2.329573;
637945180178737297;1036.868;2;5;4.5;0.1;2.2;1526;2.94888597640891;1.083289;1.691013;1.046053;1.685242;-0.9526277;0.9499994;-0.9056534;0.9671232;
637945180192739878;1038.267;2;5;4.5;0.1;2.2;1400;3.21428571428571;-1.083289;1.691012;-1.061154;1.671932;1.083289;1.691013;1.046053;1.685242;
637945180212723569;1040.266;2;5;4.5;0.1;2.2;1998;2.25225225225225;0.9526281;0.9500003;0.9346939;0.9698317;-1.083289;1.691012;-1.061154;1.671932;
637945180227581305;1041.753;2;5;4.5;0.1;2.2;1487;3.02622730329522;-0.7070671;2.342648;-0.7358907;2.352645;0.9526281;0.9500003;0.9346939;0.9698317;
637945180240718727;1043.065;2;5;4.5;0.1;2.2;1312;3.42987804878049;0.3762226;0.4663382;0.3441078;0.4967307;-0.7070671;2.342648;-0.7358907;2.352645;
637945180259012102;1044.907;2;5;3;0.2;1.4;953;3.14795383001049;-0.2394138;0.8422151;-0.2082135;0.7762811;0;2.2;0.05005795;2.23419;
637945180267583682;1045.753;2;5;3;0.2;1.4;846;3.54609929078014;0.4499513;2.036231;0.4795238;2.079941;-0.2394138;0.8422151;-0.2082135;0.7762811;
637945180276665357;1046.661;2;5;3;0.2;1.4;909;3.3003300330033;-0.6062176;1.15;-0.5601471;1.143485;0.4499513;2.036231;0.4795238;2.079941;
637945180285562000;1047.551;2;5;3;0.2;1.4;890;3.37078651685393;0.6893654;1.621554;0.6617966;1.655423;-0.6062176;1.15;-0.5601471;1.143485;
637945180294688682;1048.462;2;5;3;0.2;1.4;911;3.29308452250274;-0.6893655;1.621553;-0.6420721;1.560023;0.6893654;1.621554;0.6617966;1.655423;
637945180303265262;1049.332;2;5;3;0.2;1.4;870;3.44827586206897;0.6062179;1.15;0.6885589;1.177312;-0.6893655;1.621553;-0.6420721;1.560023;
637945180312641992;1050.259;2;5;3;0.2;1.4;927;3.23624595469256;-0.4499517;2.036231;-0.4567395;2.072976;0.6062179;1.15;0.6885589;1.177312;
637945180323774045;1051.372;2;5;3;0.2;1.4;1113;2.69541778975741;0.2394144;0.8422153;0.2622407;0.9160299;-0.4499517;2.036231;-0.4567395;2.072976;
637945180336631416;1052.658;2;5;1.5;1.1;2;688;2.18023255813953;-0.3420197;0.5603072;-0.168477;0.8797778;0;2.5;0.07392891;2.258113;
637945180342667530;1053.26;2;5;1.5;1.1;2;602;2.49169435215947;0.6427875;2.266045;0.4575769;2.018028;-0.3420197;0.5603072;-0.168477;0.8797778;
637945180348638634;1053.859;2;5;1.5;1.1;2;599;2.50417362270451;-0.8660251;0.9999995;-0.6313635;1.316814;0.6427875;2.266045;0.4575769;2.018028;
637945180354664739;1054.459;2;5;1.5;1.1;2;601;2.49584026622296;0.9848077;1.673648;0.6721158;1.641508;-0.8660251;0.9999995;-0.6313635;1.316814;
637945180361731046;1055.168;2;5;1.5;1.1;2;708;2.11864406779661;-0.9848078;1.673648;-0.6311612;1.7097;0.9848077;1.673648;0.6721158;1.641508;
637945180368142228;1055.809;2;5;1.5;1.1;2;641;2.34009360374415;0.8660256;1;0.6689354;1.203411;-0.9848078;1.673648;-0.6311612;1.7097;
637945180374613422;1056.456;2;5;1.5;1.1;2;648;2.31481481481481;-0.6427882;2.266044;-0.3977391;2.045326;0.8660256;1;0.6689354;1.203411;
637945180380649536;1057.058;2;5;1.5;1.1;2;602;2.49169435215947;0.3420205;0.5603075;0.2906327;0.871341;-0.6427882;2.266044;-0.3977391;2.045326;
637945180400653223;1059.058;2;5;3.5;0.2;2;1092;3.2051282051282;-0.3420197;0.5603072;-0.2858996;0.5829843;0;2.5;0.0417377;2.447077;
637945180410605061;1060.055;2;5;3.5;0.2;2;997;3.51053159478435;0.6427875;2.266045;0.6719703;2.277258;-0.3420197;0.5603072;-0.2858996;0.5829843;
637945180419706742;1060.965;2;5;3.5;0.2;2;910;3.84615384615385;-0.8660251;0.9999995;-0.932481;1.054185;0.6427875;2.266045;0.6719703;2.277258;
637945180441700791;1063.165;2;5;3.5;0.2;2;2200;1.59090909090909;0.9848077;1.673648;1.047949;1.665774;-0.8660251;0.9999995;-0.932481;1.054185;
637945180451687638;1064.164;2;5;3.5;0.2;2;999;3.5035035035035;-0.9848078;1.673648;-0.9472023;1.668886;0.9848077;1.673648;1.047949;1.665774;
637945180461304416;1065.135;2;5;3.5;0.2;2;971;3.60453141091658;0.8660256;1;0.9383553;1.003668;-0.9848078;1.673648;-0.9472023;1.668886;
637945180471681324;1066.163;2;5;3.5;0.2;2;1028;3.40466926070039;-0.6427882;2.266044;-0.5520721;2.227753;0.8660256;1;0.9383553;1.003668;
637945180481673168;1067.162;2;5;3.5;0.2;2;999;3.5035035035035;0.3420205;0.5603075;0.3123313;0.580724;-0.6427882;2.266044;-0.5520721;2.227753;
637945180977637619;1116.768;2;6;3.5;0.2;2;884;3.95927601809955;-0.3420197;0.5603072;-0.2944668;0.6481404;0;2.5;0.01281646;2.45597;
637945180992100286;1118.204;2;6;3.5;0.2;2;1436;2.43732590529248;0.6427875;2.266045;0.594843;2.225039;-0.3420197;0.5603072;-0.2944668;0.6481404;
637945181002457197;1119.25;2;6;3.5;0.2;2;1047;3.34288443170965;-0.8660251;0.9999995;-0.8504138;0.916134;0.6427875;2.266045;0.594843;2.225039;
637945181011003777;1120.094;2;6;3.5;0.2;2;843;4.15183867141162;0.9848077;1.673648;1.024544;1.726749;-0.8660251;0.9999995;-0.8504138;0.916134;
637945181020085449;1121.003;2;6;3.5;0.2;2;909;3.85038503850385;-0.9848078;1.673648;-0.9138727;1.6738;0.9848077;1.673648;1.024544;1.726749;
637945181036478466;1122.653;2;6;3.5;0.2;2;1650;2.12121212121212;0.8660256;1;0.7935459;0.9428805;-0.9848078;1.673648;-0.9138727;1.6738;
637945181046075242;1123.601;2;6;3.5;0.2;2;948;3.69198312236287;-0.6427882;2.266044;-0.594268;2.242795;0.8660256;1;0.7935459;0.9428805;
637945181056072089;1124.601;2;6;3.5;0.2;2;1000;3.5;0.3420205;0.5603075;0.3834353;0.5435846;-0.6427882;2.266044;-0.594268;2.242795;
637945181068949459;1125.889;2;6;1.5;1.1;2;597;2.51256281407035;-0.3420197;0.5603072;-0.1684198;1.000596;0;2.5;0.06192573;2.289491;
637945181075065588;1126.5;2;6;1.5;1.1;2;611;2.45499181669394;0.6427875;2.266045;0.4842274;2.193946;-0.3420197;0.5603072;-0.1684198;1.000596;
637945181081086697;1127.101;2;6;1.5;1.1;2;601;2.49584026622296;-0.8660251;0.9999995;-0.5883572;1.157927;0.6427875;2.266045;0.4842274;2.193946;
637945181087052801;1127.699;2;6;1.5;1.1;2;598;2.50836120401338;0.9848077;1.673648;0.6687558;1.784841;-0.8660251;0.9999995;-0.5883572;1.157927;
637945181093078915;1128.3;2;6;1.5;1.1;2;601;2.49584026622296;-0.9848078;1.673648;-0.6231815;1.74179;0.9848077;1.673648;0.6687558;1.784841;
637945181099940177;1128.988;2;6;1.5;1.1;2;688;2.18023255813953;0.8660256;1;0.6804274;1.178692;-0.9848078;1.673648;-0.6231815;1.74179;
637945181107036485;1129.698;2;6;1.5;1.1;2;710;2.11267605633803;-0.6427882;2.266044;-0.4790836;2.095586;0.8660256;1;0.6804274;1.178692;
637945181113042600;1130.298;2;6;1.5;1.1;2;600;2.5;0.3420205;0.5603075;0.2748475;0.975692;-0.6427882;2.266044;-0.4790836;2.095586;
637945181140132588;1133.007;2;6;4;0.1;1.4;1051;3.80589914367269;-0.2394138;0.8422151;-0.2299886;0.8464026;0;2.2;-0.02041498;2.158979;
637945181156140543;1134.607;2;6;4;0.1;1.4;1599;2.50156347717323;0.4499513;2.036231;0.4277503;1.993366;-0.2394138;0.8422151;-0.2299886;0.8464026;
637945181167037552;1135.696;2;6;4;0.1;1.4;1089;3.67309458218549;-0.6062176;1.15;-0.5794553;1.168864;0.4499513;2.036231;0.4277503;1.993366;
637945181182120332;1137.206;2;6;4;0.1;1.4;1510;2.64900662251656;0.6893654;1.621554;0.6512172;1.651605;-0.6062176;1.15;-0.5794553;1.168864;
637945181194112544;1138.405;2;6;4;0.1;1.4;1199;3.33611342785655;-0.6893655;1.621553;-0.678505;1.607606;0.6893654;1.621554;0.6512172;1.651605;
637945181210105493;1140.004;2;6;4;0.1;1.4;1599;2.50156347717323;0.6062179;1.15;0.5933604;1.187357;-0.6893655;1.621553;-0.678505;1.607606;
637945181220107342;1141.004;2;6;4;0.1;1.4;1000;4;-0.4499517;2.036231;-0.4870349;2.053814;0.6062179;1.15;0.5933604;1.187357;
637945181231014348;1142.094;2;6;4;0.1;1.4;1090;3.6697247706422;0.2394144;0.8422153;0.2189041;0.8252013;-0.4499517;2.036231;-0.4870349;2.053814;
637945181246092128;1143.603;2;6;2;0.6;1.8;800;2.5;-0.3078177;0.6542765;-0.2052014;0.8370203;0;2.4;0.07466308;2.257424;
637945181253013411;1144.293;2;6;2;0.6;1.8;691;2.89435600578871;0.5785087;2.18944;0.4840274;2.064476;-0.3078177;0.6542765;-0.2052014;0.8370203;
637945181261014886;1145.093;2;6;2;0.6;1.8;800;2.5;-0.7794226;1.05;-0.7312994;1.225129;0.5785087;2.18944;0.4840274;2.064476;
637945181268076186;1145.801;2;6;2;0.6;1.8;708;2.82485875706215;0.8863269;1.656283;0.7631765;1.627397;-0.7794226;1.05;-0.7312994;1.225129;
637945181276067657;1146.601;2;6;2;0.6;1.8;799;2.50312891113892;-0.8863271;1.656283;-0.7236198;1.612108;0.8863269;1.656283;0.7631765;1.627397;
637945181283178971;1147.311;2;6;2;0.6;1.8;711;2.81293952180028;0.779423;1.05;0.7115369;1.074095;-0.8863271;1.656283;-0.7236198;1.612108;
637945181290065240;1148;2;6;2;0.6;1.8;689;2.90275761973875;-0.5785094;2.18944;-0.5107775;2.115006;0.779423;1.05;0.7115369;1.074095;
637945181296991520;1148.691;2;6;2;0.6;1.8;691;2.89435600578871;0.3078185;0.6542768;0.2080418;0.870474;-0.5785094;2.18944;-0.5107775;2.115006;
637945181328174518;1151.809;2;6;4.5;0.1;2.2;2010;2.23880597014925;-0.3762217;0.4663379;-0.3452399;0.4609108;0;2.6;-0.002965998;2.553736;
637945181349143387;1153.908;2;6;4.5;0.1;2.2;2099;2.14387803716055;0.7070663;2.342649;0.6821707;2.325418;-0.3762217;0.4663379;-0.3452399;0.4609108;
637945181362025766;1155.196;2;6;4.5;0.1;2.2;1288;3.49378881987578;-0.9526277;0.9499994;-0.9212937;0.956318;0.7070663;2.342649;0.6821707;2.325418;
637945181374017979;1156.396;2;6;4.5;0.1;2.2;1199;3.75312760633862;1.083289;1.691013;1.07214;1.700878;-0.9526277;0.9499994;-0.9212937;0.956318;
637945181386015189;1157.595;2;6;4.5;0.1;2.2;1200;3.75;-1.083289;1.691012;-1.065345;1.690807;1.083289;1.691013;1.07214;1.700878;
637945181398007403;1158.795;2;6;4.5;0.1;2.2;1199;3.75312760633862;0.9526281;0.9500003;0.9246699;0.9585162;-1.083289;1.691012;-1.065345;1.690807;
637945181412004988;1160.194;2;6;4.5;0.1;2.2;1400;3.21428571428571;-0.7070671;2.342648;-0.6856747;2.311265;0.9526281;0.9500003;0.9246699;0.9585162;
637945181423744142;1161.378;2;6;4.5;0.1;2.2;1184;3.80067567567568;0.3762226;0.4663382;0.365797;0.4425908;-0.7070671;2.342648;-0.6856747;2.311265;
637945181438246821;1162.816;2;6;2.5;0.3;1.4;712;3.51123595505618;-0.2394138;0.8422151;-0.2376625;0.9323726;0;2.2;0.04741265;2.168464;
637945181444237929;1163.417;2;6;2.5;0.3;1.4;601;4.15973377703827;0.4499513;2.036231;0.4792349;2.048238;-0.2394138;0.8422151;-0.2376625;0.9323726;
637945181450239033;1164.016;2;6;2.5;0.3;1.4;599;4.17362270450751;-0.6062176;1.15;-0.5265031;1.056128;0.4499513;2.036231;0.4792349;2.048238;
637945181458235510;1164.815;2;6;2.5;0.3;1.4;799;3.12891113892365;0.6893654;1.621554;0.6867616;1.659071;-0.6062176;1.15;-0.5265031;1.056128;
637945181465121779;1165.505;2;6;2.5;0.3;1.4;690;3.6231884057971;-0.6893655;1.621553;-0.7279835;1.617422;0.6893654;1.621554;0.6867616;1.659071;
637945181472028052;1166.196;2;6;2.5;0.3;1.4;692;3.61271676300578;0.6062179;1.15;0.6859738;1.132462;-0.6893655;1.621553;-0.7279835;1.617422;
637945181479084353;1166.902;2;6;2.5;0.3;1.4;706;3.54107648725212;-0.4499517;2.036231;-0.433783;1.990724;0.6062179;1.15;0.6859738;1.132462;
637945181494192140;1168.412;2;6;2.5;0.3;1.4;1510;1.65562913907285;0.2394144;0.8422153;0.2847618;0.9763671;-0.4499517;2.036231;-0.433783;1.990724;
637945181513065620;1170.3;2;6;3;0.2;1.4;889;3.37457817772778;-0.2394138;0.8422151;-0.1849231;0.9114494;0;2.2;0.04442371;2.207758;
637945181520196934;1171.011;2;6;3;0.2;1.4;711;4.21940928270042;0.4499513;2.036231;0.4514124;1.999167;-0.2394138;0.8422151;-0.1849231;0.9114494;
637945181528188409;1171.81;2;6;3;0.2;1.4;799;3.75469336670839;-0.6062176;1.15;-0.551254;1.129397;0.4499513;2.036231;0.4514124;1.999167;
637945181551087632;1174.101;2;6;3;0.2;1.4;2291;1.3094718463553;0.6893654;1.621554;0.682276;1.589697;-0.6062176;1.15;-0.551254;1.129397;
637945181561044468;1175.098;2;6;3;0.2;1.4;997;3.00902708124373;-0.6893655;1.621553;-0.6495254;1.601839;0.6893654;1.621554;0.682276;1.589697;
637945181568160783;1175.808;2;6;3;0.2;1.4;710;4.22535211267606;0.6062179;1.15;0.6784516;1.19527;-0.6893655;1.621553;-0.6495254;1.601839;
637945181584148731;1177.408;2;6;3;0.2;1.4;1600;1.875;-0.4499517;2.036231;-0.445655;1.986351;0.6062179;1.15;0.6784516;1.19527;
637945181594145572;1178.407;2;6;3;0.2;1.4;999;3.003003003003;0.2394144;0.8422153;0.2746184;0.8806051;-0.4499517;2.036231;-0.445655;1.986351;
637945182109338038;1229.927;2;7;4;0.1;1.4;1109;3.6068530207394;-0.2394138;0.8422151;-0.2291037;0.8584223;0;2.2;0.04302026;2.203493;
637945182119334879;1230.927;2;7;4;0.1;1.4;1000;4;0.4499513;2.036231;0.4273648;2.061236;-0.2394138;0.8422151;-0.2291037;0.8584223;
637945182136433041;1232.636;2;7;4;0.1;1.4;1710;2.33918128654971;-0.6062176;1.15;-0.6172763;1.111876;0.4499513;2.036231;0.4273648;2.061236;
637945182147305039;1233.724;2;7;4;0.1;1.4;1087;3.67985280588776;0.6893654;1.621554;0.6883556;1.628523;-0.6062176;1.15;-0.6172763;1.111876;
637945182170419303;1236.035;2;7;4;0.1;1.4;2311;1.73085244482908;-0.6893655;1.621553;-0.6819754;1.602212;0.6893654;1.621554;0.6883556;1.628523;
637945182183306679;1237.323;2;7;4;0.1;1.4;1289;3.10318076027929;0.6062179;1.15;0.5606877;1.163428;-0.6893655;1.621553;-0.6819754;1.602212;
637945182193033471;1238.307;2;7;4;0.1;1.4;984;4.0650406504065;-0.4499517;2.036231;-0.4567468;2.08331;0.6062179;1.15;0.5606877;1.163428;
637945182203295367;1239.323;2;7;4;0.1;1.4;1015;3.94088669950739;0.2394144;0.8422153;0.220599;0.8345649;-0.4499517;2.036231;-0.4567468;2.08331;
637945182214787479;1240.481;2;7;1.5;1.1;2;560;2.67857142857143;-0.3420197;0.5603072;-0.1133715;1.052577;0;2.5;0.05519437;2.172542;
637945182221283683;1241.122;2;7;1.5;1.1;2;640;2.34375;0.6427875;2.266045;0.448858;2.002481;-0.3420197;0.5603072;-0.1133715;1.052577;
637945182227284792;1241.721;2;7;1.5;1.1;2;600;2.5;-0.8660251;0.9999995;-0.7343338;1.292198;0.6427875;2.266045;0.448858;2.002481;
637945182233285907;1242.322;2;7;1.5;1.1;2;600;2.5;0.9848077;1.673648;0.6622155;1.591241;-0.8660251;0.9999995;-0.7343338;1.292198;
637945182249303851;1243.923;2;7;1.5;1.1;2;1602;0.936329588014981;-0.9848078;1.673648;-0.6877949;1.704752;0.9848077;1.673648;0.6622155;1.591241;
637945182257270321;1244.72;2;7;1.5;1.1;2;797;1.88205771643664;0.8660256;1;0.5962101;1.210608;-0.9848078;1.673648;-0.6877949;1.704752;
637945182264371628;1245.43;2;7;1.5;1.1;2;710;2.11267605633803;-0.6427882;2.266044;-0.3459172;2.020005;0.8660256;1;0.5962101;1.210608;
637945182273273271;1246.32;2;7;1.5;1.1;2;890;1.68539325842697;0.3420205;0.5603075;0.3706827;1.005143;-0.6427882;2.266044;-0.3459172;2.020005;
637945182295477365;1248.54;2;7;2;0.6;1.8;1111;1.8001800180018;-0.3078177;0.6542765;-0.18783;0.9283888;0;2.4;-0.02277671;2.195972;
637945182304349002;1249.428;2;7;2;0.6;1.8;888;2.25225225225225;0.5785087;2.18944;0.4415019;2.148035;-0.3078177;0.6542765;-0.18783;0.9283888;
637945182316371221;1250.629;2;7;2;0.6;1.8;1201;1.66527893422148;-0.7794226;1.05;-0.5972632;1.187877;0.5785087;2.18944;0.4415019;2.148035;
637945182329568654;1251.947;2;7;2;0.6;1.8;1318;1.51745068285281;0.8863269;1.656283;0.6475958;1.691053;-0.7794226;1.05;-0.5972632;1.187877;
637945182336379910;1252.628;2;7;2;0.6;1.8;681;2.93685756240822;-0.8863271;1.656283;-0.6850231;1.652484;0.8863269;1.656283;0.6475958;1.691053;
637945182344376394;1253.429;2;7;2;0.6;1.8;801;2.49687890137328;0.779423;1.05;0.7032059;1.15982;-0.8863271;1.656283;-0.6850231;1.652484;
637945182353448055;1254.337;2;7;2;0.6;1.8;908;2.20264317180617;-0.5785094;2.18944;-0.5050322;2.087675;0.779423;1.05;0.7032059;1.15982;
637945182362324694;1255.225;2;7;2;0.6;1.8;888;2.25225225225225;0.3078185;0.6542768;0.2807037;0.8316818;-0.5785094;2.18944;-0.5050322;2.087675;
637945182395423959;1258.535;2;7;3;0.2;1.4;1311;2.2883295194508;-0.2394138;0.8422151;-0.2435654;0.9158839;0;2.2;0.04570717;2.133893;
637945182405420804;1259.534;2;7;3;0.2;1.4;1000;3;0.4499513;2.036231;0.3792165;2.082977;-0.2394138;0.8422151;-0.2435654;0.9158839;
637945182416297810;1260.623;2;7;3;0.2;1.4;1088;2.75735294117647;-0.6062176;1.15;-0.5822946;1.169324;0.4499513;2.036231;0.3792165;2.082977;
637945182425409490;1261.534;2;7;3;0.2;1.4;911;3.29308452250274;0.6893654;1.621554;0.6652965;1.66507;-0.6062176;1.15;-0.5822946;1.169324;
637945182433991072;1262.403;2;7;3;0.2;1.4;869;3.45224395857307;-0.6893655;1.621553;-0.5925469;1.636258;0.6893654;1.621554;0.6652965;1.66507;
637945182442332609;1263.224;2;7;3;0.2;1.4;821;3.65408038976857;0.6062179;1.15;0.6495687;1.169985;-0.6893655;1.621553;-0.5925469;1.636258;
637945182452354458;1264.229;2;7;3;0.2;1.4;1005;2.98507462686567;-0.4499517;2.036231;-0.4064395;2.002612;0.6062179;1.15;0.6495687;1.169985;
637945182461391129;1265.132;2;7;3;0.2;1.4;903;3.32225913621262;0.2394144;0.8422153;0.261788;0.8620281;-0.4499517;2.036231;-0.4064395;2.002612;
637945182488511131;1267.843;2;7;3.5;0.2;2;1202;2.91181364392679;-0.3420197;0.5603072;-0.376352;0.6252041;0;2.5;0.06648475;2.473785;
637945182504399058;1269.432;2;7;3.5;0.2;2;1589;2.20264317180617;0.6427875;2.266045;0.5530586;2.222687;-0.3420197;0.5603072;-0.376352;0.6252041;
637945182515476102;1270.54;2;7;3.5;0.2;2;1109;3.15599639314698;-0.8660251;0.9999995;-0.7817128;1.053756;0.6427875;2.266045;0.5530586;2.222687;
637945182525482944;1271.54;2;7;3.5;0.2;2;999;3.5035035035035;0.9848077;1.673648;0.9379526;1.694644;-0.8660251;0.9999995;-0.7817128;1.053756;
637945182535469787;1272.539;2;7;3.5;0.2;2;1000;3.5;-0.9848078;1.673648;-1.035761;1.666251;0.9848077;1.673648;0.9379526;1.694644;
637945182544376430;1273.429;2;7;3.5;0.2;2;890;3.93258426966292;0.8660256;1;0.8346741;1.001145;-0.9848078;1.673648;-1.035761;1.666251;
637945182554343269;1274.427;2;7;3.5;0.2;2;998;3.50701402805611;-0.6427882;2.266044;-0.6382527;2.315109;0.8660256;1;0.8346741;1.001145;
637945182563509954;1275.341;2;7;3.5;0.2;2;914;3.82932166301969;0.3420205;0.5603075;0.2826018;0.5870526;-0.6427882;2.266044;-0.6382527;2.315109;
637945182587419369;1277.737;2;7;4.5;0.1;2.2;1400;3.21428571428571;-0.3762217;0.4663379;-0.4137204;0.4893779;0;2.6;-0.007025439;2.565378;
637945182608417339;1279.837;2;7;4.5;0.1;2.2;2094;2.14899713467049;0.7070663;2.342649;0.7275138;2.337171;-0.3762217;0.4663379;-0.4137204;0.4893779;
637945182620402260;1281.036;2;7;4.5;0.1;2.2;1198;3.75626043405676;-0.9526277;0.9499994;-0.9302043;0.9656413;0.7070663;2.342649;0.7275138;2.337171;
637945182634744907;1282.48;2;7;4.5;0.1;2.2;1445;3.11418685121107;1.083289;1.691013;1.112236;1.718558;-0.9526277;0.9499994;-0.9302043;0.9656413;
637945182651381346;1284.133;2;7;4.5;0.1;2.2;1653;2.72232304900181;-1.083289;1.691012;-1.061759;1.68359;1.083289;1.691013;1.112236;1.718558;
637945182665498949;1285.544;2;7;4.5;0.1;2.2;1411;3.18922749822821;0.9526281;0.9500003;0.9614708;0.9913018;-1.083289;1.691012;-1.061759;1.68359;
637945182681481475;1287.142;2;7;4.5;0.1;2.2;1599;2.81425891181989;-0.7070671;2.342648;-0.7048411;2.30747;0.9526281;0.9500003;0.9614708;0.9913018;
637945182696709282;1288.677;2;7;4.5;0.1;2.2;1535;2.93159609120521;0.3762226;0.4663382;0.3706669;0.5160304;-0.7070671;2.342648;-0.7048411;2.30747;
637945182712387179;1290.233;2;7;2.5;0.3;1.4;800;3.125;-0.2394138;0.8422151;-0.2078448;0.7713321;0;2.2;0.03541914;2.134552;
637945182719553500;1290.951;2;7;2.5;0.3;1.4;718;3.48189415041783;0.4499513;2.036231;0.4966134;2.001968;-0.2394138;0.8422151;-0.2078448;0.7713321;
637945182727429953;1291.738;2;7;2.5;0.3;1.4;787;3.17662007623888;-0.6062176;1.15;-0.6218558;1.180788;0.4499513;2.036231;0.4966134;2.001968;
637945182734476255;1292.442;2;7;2.5;0.3;1.4;704;3.55113636363636;0.6893654;1.621554;0.7927399;1.586417;-0.6062176;1.15;-0.6218558;1.180788;
637945182741452540;1293.14;2;7;2.5;0.3;1.4;698;3.58166189111748;-0.6893655;1.621553;-0.7115825;1.550797;0.6893654;1.621554;0.7927399;1.586417;
637945182749459015;1293.94;2;7;2.5;0.3;1.4;800;3.125;0.6062179;1.15;0.5899763;1.137143;-0.6893655;1.621553;-0.7115825;1.550797;
637945182757440486;1294.739;2;7;2.5;0.3;1.4;799;3.12891113892365;-0.4499517;2.036231;-0.4796737;1.999529;0.6062179;1.15;0.5899763;1.137143;
637945182764616810;1295.457;2;7;2.5;0.3;1.4;718;3.48189415041783;0.2394144;0.8422153;0.2811253;0.8808447;-0.4499517;2.036231;-0.4796737;1.999529;
