637945203123684719;67.42184;4;1;3.5;0.2;2;1323;2.64550264550265;-0.3420197;0.5603072;-0.2535321;0.6036158;0;2.5;0.03878928;2.438874;
637945203134441642;68.49809;4;1;3.5;0.2;2;1076;3.25278810408922;0.6427875;2.266045;0.6101935;2.225083;-0.3420197;0.5603072;-0.2535321;0.6036158;
637945203143483261;69.4006;4;1;3.5;0.2;2;903;3.87596899224806;-0.8660251;0.9999995;-0.8164919;0.9934319;0.6427875;2.266045;0.6101935;2.225083;
637945203153490052;70.40321;4;1;3.5;0.2;2;1003;3.48953140578265;0.9848077;1.673648;1.076151;1.693867;-0.8660251;0.9999995;-0.8164919;0.9934319;
637945203165607216;71.61086;4;1;3.5;0.2;2;1208;2.89735099337748;-0.9848078;1.673648;-0.9389498;1.599468;0.9848077;1.673648;1.076151;1.693867;
637945203181650242;73.21891;4;1;3.5;0.2;2;1608;2.17661691542289;0.8660256;1;0.7679613;0.9818248;-0.9848078;1.673648;-0.9389498;1.599468;
637945203192082111;74.27316;4;1;3.5;0.2;2;1054;3.32068311195446;-0.6427882;2.266044;-0.5847188;2.185932;0.8660256;1;0.7679613;0.9818248;
637945203202643998;75.31705;4;1;3.5;0.2;2;1044;3.35249042145594;0.3420205;0.5603075;0.3040621;0.6319155;-0.6427882;2.266044;-0.5847188;2.185932;
637945203218631864;76.91515;4;1;1.5;1.1;2;798;1.8796992481203;-0.3420197;0.5603072;-0.2291642;0.879756;0;2.5;0.09986317;2.423707;
637945203225538095;77.60681;4;1;1.5;1.1;2;692;2.16763005780347;0.6427875;2.266045;0.5948018;2.082934;-0.3420197;0.5603072;-0.2291642;0.879756;
637945203233839799;78.43793;4;1;1.5;1.1;2;831;1.80505415162455;-0.8660251;0.9999995;-0.5952617;1.189303;0.6427875;2.266045;0.5948018;2.082934;
637945203240576008;79.11188;4;1;1.5;1.1;2;674;2.22551928783383;0.9848077;1.673648;0.6675807;1.494132;-0.8660251;0.9999995;-0.5952617;1.189303;
637945203259591475;81.01316;4;1;1.5;1.1;2;1901;0.789058390320884;-0.9848078;1.673648;-0.777851;1.638597;0.9848077;1.673648;0.6675807;1.494132;
637945203268523073;81.90615;4;1;1.5;1.1;2;893;1.67973124300112;0.8660256;1;0.5768719;1.130356;-0.9848078;1.673648;-0.777851;1.638597;
637945203276809723;82.73511;4;1;1.5;1.1;2;829;1.80940892641737;-0.6427882;2.266044;-0.4571589;2.093918;0.8660256;1;0.5768719;1.130356;
637945203284736145;83.5257;4;1;1.5;1.1;2;791;1.89633375474083;0.3420205;0.5603075;0.1544328;0.8370746;-0.6427882;2.266044;-0.4571589;2.093918;
637945203301576416;85.21136;4;1;2;0.6;1.8;800;2.5;-0.3078177;0.6542765;-0.2336124;0.8224816;0;2.4;0.0344006;2.317326;
637945203310598033;86.11346;4;1;2;0.6;1.8;902;2.21729490022173;0.5785087;2.18944;0.5138671;2.133175;-0.3078177;0.6542765;-0.2336124;0.8224816;
637945203322790405;87.33301;4;1;2;0.6;1.8;1220;1.63934426229508;-0.7794226;1.05;-0.5304349;1.145001;0.5785087;2.18944;0.5138671;2.133175;
637945203331686994;88.22272;4;1;2;0.6;1.8;890;2.24719101123596;0.8863269;1.656283;0.7533474;1.572572;-0.7794226;1.05;-0.5304349;1.145001;
637945203340558585;89.10939;4;1;2;0.6;1.8;887;2.25479143179256;-0.8863271;1.656283;-0.8309317;1.549754;0.8863269;1.656283;0.7533474;1.572572;
637945203348560018;89.90941;4;1;2;0.6;1.8;800;2.5;0.779423;1.05;0.5366553;1.070477;-0.8863271;1.656283;-0.8309317;1.549754;
637945203356706472;90.72226;4;1;2;0.6;1.8;813;2.460024600246;-0.5785094;2.18944;-0.5721914;2.10612;0.779423;1.05;0.5366553;1.070477;
637945203368538848;91.90746;4;1;2;0.6;1.8;1185;1.68776371308017;0.3078185;0.6542768;0.2392927;0.833807;-0.5785094;2.18944;-0.5721914;2.10612;
637945203393721736;94.42325;4;1;2.5;0.3;1.4;1294;1.93199381761978;-0.2394138;0.8422151;-0.2710711;0.8965354;0;2.2;-0.02119852;2.200001;
637945203403645510;95.41823;4;1;2.5;0.3;1.4;995;2.51256281407035;0.4499513;2.036231;0.3908347;1.992242;-0.2394138;0.8422151;-0.2710711;0.8965354;
637945203412132024;96.265;4;1;2.5;0.3;1.4;847;2.95159386068477;-0.6062176;1.15;-0.6559012;1.23703;0.4499513;2.036231;0.3908347;1.992242;
637945203420738568;97.12823;4;1;2.5;0.3;1.4;863;2.89687137891078;0.6893654;1.621554;0.6498222;1.576634;-0.6062176;1.15;-0.6559012;1.23703;
637945203429610154;98.01466;4;1;2.5;0.3;1.4;886;2.82167042889391;-0.6893655;1.621553;-0.7032212;1.570294;0.6893654;1.621554;0.6498222;1.576634;
637945203438866243;98.93994;4;1;2.5;0.3;1.4;925;2.7027027027027;0.6062179;1.15;0.6154886;1.213178;-0.6893655;1.621553;-0.7032212;1.570294;
637945203456760650;100.7283;4;1;2.5;0.3;1.4;1788;1.39821029082774;-0.4499517;2.036231;-0.3829805;1.946842;0.6062179;1.15;0.6154886;1.213178;
637945203470802954;102.1257;4;1;2.5;0.3;1.4;1397;1.78954903364352;0.2394144;0.8422153;0.2409452;0.9233885;-0.4499517;2.036231;-0.3829805;1.946842;
637945203496593466;104.7124;4;1;4;0.1;1.4;1244;3.21543408360129;-0.2394138;0.8422151;-0.2123286;0.8373463;0;2.2;-0.01990323;2.237499;
637945203512931391;106.358;4;1;4;0.1;1.4;1646;2.43013365735115;0.4499513;2.036231;0.4754171;2.049505;-0.2394138;0.8422151;-0.2123286;0.8373463;
637945203523698317;107.4236;4;1;4;0.1;1.4;1066;3.75234521575985;-0.6062176;1.15;-0.611563;1.173625;0.4499513;2.036231;0.4754171;2.049505;
637945203535905500;108.644;4;1;4;0.1;1.4;1220;3.27868852459016;0.6893654;1.621554;0.7304382;1.644008;-0.6062176;1.15;-0.611563;1.173625;
637945203546202345;109.6851;4;1;4;0.1;1.4;1041;3.84245917387128;-0.6893655;1.621553;-0.721305;1.649053;0.6893654;1.621554;0.7304382;1.644008;
637945203566731019;111.7242;4;1;4;0.1;1.4;2039;1.96174595389897;0.6062179;1.15;0.6530774;1.146309;-0.6893655;1.621553;-0.721305;1.649053;
637945203577772994;112.8316;4;1;4;0.1;1.4;1107;3.613369467028;-0.4499517;2.036231;-0.4085311;2.013049;0.6062179;1.15;0.6530774;1.146309;
637945203599881722;115.0415;4;1;4;0.1;1.4;2210;1.80995475113122;0.2394144;0.8422153;0.2352756;0.8783045;-0.4499517;2.036231;-0.4085311;2.013049;
637945203631796604;118.233;4;1;3;0.2;1.4;2208;1.35869565217391;-0.2394138;0.8422151;-0.2389332;0.8754356;0;2.2;0.0237104;2.137238;
637945203642748562;119.3287;4;1;3;0.2;1.4;1080;2.77777777777778;0.4499513;2.036231;0.4159681;2.005485;-0.2394138;0.8422151;-0.2389332;0.8754356;
637945203653850549;120.4389;4;1;3;0.2;1.4;1110;2.7027027027027;-0.6062176;1.15;-0.5494404;1.175497;0.4499513;2.036231;0.4159681;2.005485;
637945203662732139;121.3273;4;1;3;0.2;1.4;888;3.37837837837838;0.6893654;1.621554;0.7077599;1.610076;-0.6062176;1.15;-0.5494404;1.175497;
637945203672861367;122.3398;4;1;3;0.2;1.4;1013;2.96150049358342;-0.6893655;1.621553;-0.6516293;1.574912;0.6893654;1.621554;0.7077599;1.610076;
637945203679727597;123.0266;4;1;3;0.2;1.4;675;4.44444444444444;0.6062179;1.15;0.5834318;1.085716;-0.6893655;1.621553;-0.6516293;1.574912;
637945203688859233;123.9395;4;1;3;0.2;1.4;913;3.28587075575027;-0.4499517;2.036231;-0.3783947;1.978232;0.6062179;1.15;0.5834318;1.085716;
637945203698826013;124.9363;4;1;3;0.2;1.4;997;3.00902708124373;0.2394144;0.8422153;0.2133447;0.9242188;-0.4499517;2.036231;-0.3783947;1.978232;
637945203734924480;128.5462;4;1;4.5;0.1;2.2;2269;1.98325253415602;-0.3762217;0.4663379;-0.355766;0.5062388;0;2.6;0.004917528;2.603824;
637945203751917522;130.2446;4;1;4.5;0.1;2.2;1698;2.65017667844523;0.7070663;2.342649;0.699186;2.345656;-0.3762217;0.4663379;-0.355766;0.5062388;
637945203765865016;131.6397;4;1;4.5;0.1;2.2;1395;3.2258064516129;-0.9526277;0.9499994;-0.9447832;0.9673941;0.7070663;2.342649;0.699186;2.345656;
637945203778027195;132.8564;4;1;4.5;0.1;2.2;1217;3.69761709120789;1.083289;1.691013;1.114761;1.682792;-0.9526277;0.9499994;-0.9447832;0.9673941;
637945203799821088;135.0342;4;1;4.5;0.1;2.2;2178;2.06611570247934;-1.083289;1.691012;-1.039868;1.694245;1.083289;1.691013;1.114761;1.682792;
637945203815887370;136.6422;4;1;4.5;0.1;2.2;1608;2.79850746268657;0.9526281;0.9500003;0.9456522;0.9601445;-1.083289;1.691012;-1.039868;1.694245;
637945203830870532;138.1408;4;1;4.5;0.1;2.2;1499;3.00200133422282;-0.7070671;2.342648;-0.6697952;2.343508;0.9526281;0.9500003;0.9456522;0.9601445;
637945203855990027;140.6526;4;1;4.5;0.1;2.2;2512;1.79140127388535;0.3762226;0.4663382;0.3572857;0.4747404;-0.7070671;2.342648;-0.6697952;2.343508;
637945204445032470;199.5565;4;2;1.5;1.1;2;799;1.87734668335419;-0.3420197;0.5603072;-0.1609593;0.8405517;0;2.5;0.04842793;2.165143;
637945204453158922;200.3664;4;2;1.5;1.1;2;810;1.85185185185185;0.6427875;2.266045;0.4143218;1.915202;-0.3420197;0.5603072;-0.1609593;0.8405517;
637945204461125024;201.1657;4;2;1.5;1.1;2;799;1.87734668335419;-0.8660251;0.9999995;-0.5312028;1.149384;0.6427875;2.266045;0.4143218;1.915202;
637945204469026437;201.9561;4;2;1.5;1.1;2;790;1.89873417721519;0.9848077;1.673648;0.6737586;1.620028;-0.8660251;0.9999995;-0.5312028;1.149384;
637945204475607619;202.6252;4;2;1.5;1.1;2;669;2.24215246636771;-0.9848078;1.673648;-0.4847923;1.511776;0.9848077;1.673648;0.6737586;1.620028;
637945204487059666;203.7593;4;2;1.5;1.1;2;1134;1.32275132275132;0.8660256;1;0.4881441;1.132024;-0.9848078;1.673648;-0.4847923;1.511776;
637945204498136647;204.866;4;2;1.5;1.1;2;1107;1.3550135501355;-0.6427882;2.266044;-0.4257542;2.051042;0.8660256;1;0.4881441;1.132024;
637945204506118071;205.6637;4;2;1.5;1.1;2;798;1.8796992481203;0.3420205;0.5603075;0.3736128;1.022756;-0.6427882;2.266044;-0.4257542;2.051042;
637945204547405752;209.805;4;2;4;0.1;1.4;1290;3.10077519379845;-0.2394138;0.8422151;-0.2859185;0.8603531;0;2.2;0.01522474;2.158244;
637945204561108205;211.1642;4;2;4;0.1;1.4;1359;2.94334069168506;0.4499513;2.036231;0.4435511;2.041296;-0.2394138;0.8422151;-0.2859185;0.8603531;
637945204575466709;212.6112;4;2;4;0.1;1.4;1447;2.7643400138217;-0.6062176;1.15;-0.5684035;1.179413;0.4499513;2.036231;0.4435511;2.041296;
637945204586178632;213.6711;4;2;4;0.1;1.4;1060;3.77358490566038;0.6893654;1.621554;0.7049249;1.607263;-0.6062176;1.15;-0.5684035;1.179413;
637945204602055663;215.2594;4;2;4;0.1;1.4;1566;2.55427841634738;-0.6893655;1.621553;-0.6690953;1.620699;0.6893654;1.621554;0.7049249;1.607263;
637945204637263680;218.7795;4;2;4;0.1;1.4;3520;1.13636363636364;0.6062179;1.15;0.5920469;1.141921;-0.6893655;1.621553;-0.6690953;1.620699;
637945204653260449;220.3791;4;2;4;0.1;1.4;1600;2.5;-0.4499517;2.036231;-0.4770027;2.022936;0.6062179;1.15;0.5920469;1.141921;
637945204667132931;221.7667;4;2;4;0.1;1.4;1388;2.88184438040346;0.2394144;0.8422153;0.2403303;0.8303198;-0.4499517;2.036231;-0.4770027;2.022936;
637945204688456355;223.899;4;2;3;0.2;1.4;1032;2.90697674418605;-0.2394138;0.8422151;-0.2033662;0.9286401;0;2.2;0.005536116;2.147348;
637945204701379161;225.1895;4;2;3;0.2;1.4;1291;2.32378001549187;0.4499513;2.036231;0.4247034;2.004102;-0.2394138;0.8422151;-0.2033662;0.9286401;
637945204713376308;226.3885;4;2;3;0.2;1.4;1199;2.50208507089241;-0.6062176;1.15;-0.5504268;1.172751;0.4499513;2.036231;0.4247034;2.004102;
637945204726219196;227.675;4;2;3;0.2;1.4;1286;2.33281493001555;0.6893654;1.621554;0.6623883;1.600474;-0.6062176;1.15;-0.5504268;1.172751;
637945204737216163;228.7743;4;2;3;0.2;1.4;1099;2.72975432211101;-0.6893655;1.621553;-0.6407486;1.683536;0.6893654;1.621554;0.6623883;1.600474;
637945204745657675;229.6304;4;2;3;0.2;1.4;856;3.50467289719626;0.6062179;1.15;0.5658514;1.092999;-0.6893655;1.621553;-0.6407486;1.683536;
637945204762205638;231.2737;4;2;3;0.2;1.4;1643;1.82592818015825;-0.4499517;2.036231;-0.3966776;2.021118;0.6062179;1.15;0.5658514;1.092999;
637945204773241331;232.3773;4;2;3;0.2;1.4;1104;2.71739130434783;0.2394144;0.8422153;0.215262;0.9169711;-0.4499517;2.036231;-0.3966776;2.021118;
637945204805288946;235.5819;4;2;4.5;0.1;2.2;1807;2.49031543995573;-0.3762217;0.4663379;-0.3787004;0.4912479;0;2.6;0.01476564;2.638756;
637945204822196279;237.2721;4;2;4.5;0.1;2.2;1690;2.66272189349112;0.7070663;2.342649;0.7260692;2.305465;-0.3762217;0.4663379;-0.3787004;0.4912479;
637945204835286893;238.5802;4;2;4.5;0.1;2.2;1308;3.44036697247706;-0.9526277;0.9499994;-0.9114704;0.9326353;0.7070663;2.342649;0.7260692;2.305465;
637945204851274747;240.1795;4;2;4.5;0.1;2.2;1599;2.81425891181989;1.083289;1.691013;1.064706;1.707961;-0.9526277;0.9499994;-0.9114704;0.9326353;
637945204868218440;241.8744;4;2;4.5;0.1;2.2;1695;2.65486725663717;-1.083289;1.691012;-1.046898;1.703155;1.083289;1.691013;1.064706;1.707961;
637945204892368053;244.2899;4;2;4.5;0.1;2.2;2415;1.86335403726708;0.9526281;0.9500003;0.9230599;0.9710189;-1.083289;1.691012;-1.046898;1.703155;
637945204908368365;245.8901;4;2;4.5;0.1;2.2;1600;2.8125;-0.7070671;2.342648;-0.7244576;2.348854;0.9526281;0.9500003;0.9230599;0.9710189;
637945204939344595;248.9881;4;2;4.5;0.1;2.2;3098;1.45255003227889;0.3762226;0.4663382;0.386946;0.4983888;-0.7070671;2.342648;-0.7244576;2.348854;
637945204960332066;251.0867;4;2;3.5;0.2;2;888;3.94144144144144;-0.3420197;0.5603072;-0.3382666;0.6265888;0;2.5;0.01491259;2.495036;
637945204971459051;252.1981;4;2;3.5;0.2;2;1111;3.15031503150315;0.6427875;2.266045;0.6662686;2.264129;-0.3420197;0.5603072;-0.3382666;0.6265888;
637945204979785547;253.0426;4;2;3.5;0.2;2;844;4.14691943127962;-0.8660251;0.9999995;-0.8420742;1.069695;0.6427875;2.266045;0.6662686;2.264129;
637945204994608199;254.5248;4;2;3.5;0.2;2;1482;2.36167341430499;0.9848077;1.673648;0.8885536;1.64756;-0.8660251;0.9999995;-0.8420742;1.069695;
637945205003441982;255.3961;4;2;3.5;0.2;2;871;4.01836969001148;-0.9848078;1.673648;-0.8862409;1.690519;0.9848077;1.673648;0.8885536;1.64756;
637945205011858492;256.25;4;2;3.5;0.2;2;850;4.11764705882353;0.8660256;1;0.9047493;1.089772;-0.9848078;1.673648;-0.8862409;1.690519;
637945205021075147;257.1719;4;2;3.5;0.2;2;922;3.79609544468547;-0.6427882;2.266044;-0.6046634;2.175221;0.8660256;1;0.9047493;1.089772;
637945205035397704;258.5932;4;2;3.5;0.2;2;1421;2.46305418719212;0.3420205;0.5603075;0.3626288;0.6278731;-0.6427882;2.266044;-0.6046634;2.175221;
637945205057437081;260.795;4;2;2;0.6;1.8;714;2.80112044817927;-0.3078177;0.6542765;-0.1742212;0.8573006;0;2.4;-0.0431117;2.403853;
637945205074269170;262.4799;4;2;2;0.6;1.8;1667;1.1997600479904;0.5785087;2.18944;0.4760572;2.20186;-0.3078177;0.6542765;-0.1742212;0.8573006;
637945205082487370;263.3022;4;2;2;0.6;1.8;822;2.4330900243309;-0.7794226;1.05;-0.5940928;1.11611;0.5785087;2.18944;0.4760572;2.20186;
637945205090488804;264.102;4;2;2;0.6;1.8;800;2.5;0.8863269;1.656283;0.750754;1.582929;-0.7794226;1.05;-0.5940928;1.11611;
637945205100371226;265.0906;4;2;2;0.6;1.8;989;2.02224469160768;-0.8863271;1.656283;-0.8358669;1.62982;0.8863269;1.656283;0.750754;1.582929;
637945205108372662;265.8904;4;2;2;0.6;1.8;800;2.5;0.779423;1.05;0.7322443;1.120918;-0.8863271;1.656283;-0.8358669;1.62982;
637945205127401065;267.7914;4;2;2;0.6;1.8;1901;1.05207785376118;-0.5785094;2.18944;-0.5661904;2.190491;0.779423;1.05;0.7322443;1.120918;
637945205137532881;268.8062;4;2;2;0.6;1.8;1015;1.97044334975369;0.3078185;0.6542768;0.1484273;0.8519781;-0.5785094;2.18944;-0.5661904;2.190491;
637945205164447697;271.4978;4;2;2.5;0.3;1.4;1108;2.25631768953069;-0.2394138;0.8422151;-0.245968;0.8895935;0;2.2;-0.05651027;2.223256;
637945205182553999;273.3082;4;2;2.5;0.3;1.4;1810;1.38121546961326;0.4499513;2.036231;0.4412674;2.087119;-0.2394138;0.8422151;-0.245968;0.8895935;
637945205192334003;274.2869;4;2;2.5;0.3;1.4;979;2.55362614913177;-0.6062176;1.15;-0.6224092;1.193718;0.4499513;2.036231;0.4412674;2.087119;
637945205200375603;275.0867;4;2;2.5;0.3;1.4;800;3.125;0.6893654;1.621554;0.6147698;1.58732;-0.6062176;1.15;-0.6224092;1.193718;
637945205209457230;275.9976;4;2;2.5;0.3;1.4;911;2.74423710208562;-0.6893655;1.621553;-0.6636942;1.674325;0.6893654;1.621554;0.6147698;1.58732;
637945205220424190;277.0954;4;2;2.5;0.3;1.4;1098;2.27686703096539;0.6062179;1.15;0.6285715;1.197634;-0.6893655;1.621553;-0.6636942;1.674325;
637945205231313180;278.1846;4;2;2.5;0.3;1.4;1089;2.29568411386593;-0.4499517;2.036231;-0.4400507;1.963201;0.6062179;1.15;0.6285715;1.197634;
637945205240409808;279.0941;4;2;2.5;0.3;1.4;910;2.74725274725275;0.2394144;0.8422153;0.1725265;0.8381554;-0.4499517;2.036231;-0.4400507;1.963201;
637945206211947150;376.2468;4;3;4.5;0.1;2.2;2106;2.13675213675214;-0.3762217;0.4663379;-0.3804098;0.4796478;0;2.6;0.005659479;2.633494;
637945206224814450;377.5339;4;3;4.5;0.1;2.2;1287;3.4965034965035;0.7070663;2.342649;0.7083953;2.365804;-0.3762217;0.4663379;-0.3804098;0.4796478;
637945206249924217;380.045;4;3;4.5;0.1;2.2;2511;1.7921146953405;-0.9526277;0.9499994;-0.9470639;0.9322212;0.7070663;2.342649;0.7083953;2.365804;
637945206265924628;381.6448;4;3;4.5;0.1;2.2;1600;2.8125;1.083289;1.691013;1.079644;1.696098;-0.9526277;0.9499994;-0.9470639;0.9322212;
637945206280032157;383.0558;4;3;4.5;0.1;2.2;1411;3.18922749822821;-1.083289;1.691012;-1.06137;1.694944;1.083289;1.691013;1.079644;1.696098;
637945206298019541;384.8546;4;3;4.5;0.1;2.2;1799;2.50138966092273;0.9526281;0.9500003;0.9804582;0.9639803;-1.083289;1.691012;-1.06137;1.694944;
637945206309353310;385.9985;4;3;4.5;0.1;2.2;1144;3.93356643356643;-0.7070671;2.342648;-0.6868566;2.374392;0.9526281;0.9500003;0.9804582;0.9639803;
637945206326106306;387.6634;4;3;4.5;0.1;2.2;1663;2.70595309681299;0.3762226;0.4663382;0.3956764;0.490188;-0.7070671;2.342648;-0.6868566;2.374392;
637945206342354211;389.2985;4;3;2;0.6;1.8;746;2.68096514745308;-0.3078177;0.6542765;-0.1250667;0.8883401;0;2.4;0.02967731;2.20383;
637945206351207687;390.1731;4;3;2;0.6;1.8;867;2.30680507497117;0.5785087;2.18944;0.504122;2.120444;-0.3078177;0.6542765;-0.1250667;0.8883401;
637945206358088918;390.8613;4;3;2;0.6;1.8;688;2.90697674418605;-0.7794226;1.05;-0.4991531;1.143127;0.5785087;2.18944;0.504122;2.120444;
637945206372986584;392.3492;4;3;2;0.6;1.8;1488;1.34408602150538;0.8863269;1.656283;0.6399891;1.682952;-0.7794226;1.05;-0.4991531;1.143127;
637945206395076081;394.5602;4;3;2;0.6;1.8;2211;0.904568068747173;-0.8863271;1.656283;-0.6983812;1.649349;0.8863269;1.656283;0.6399891;1.682952;
637945206402402395;395.3036;4;3;2;0.6;1.8;743;2.69179004037685;0.779423;1.05;0.4858623;1.103992;-0.8863271;1.656283;-0.6983812;1.649349;
637945206412202713;396.2711;4;3;2;0.6;1.8;967;2.06825232678387;-0.5785094;2.18944;-0.3978925;2.135003;0.779423;1.05;0.4858623;1.103992;
637945206420948701;397.1474;4;3;2;0.6;1.8;876;2.28310502283105;0.3078185;0.6542768;0.1449664;0.865759;-0.5785094;2.18944;-0.3978925;2.135003;
637945206437011575;398.7537;4;3;1.5;1.1;2;695;2.15827338129496;-0.3420197;0.5603072;-0.1335117;0.9426142;0;2.5;0.08556587;2.184757;
637945206445048014;399.5575;4;3;1.5;1.1;2;804;1.86567164179104;0.6427875;2.266045;0.4990147;1.984862;-0.3420197;0.5603072;-0.1335117;0.9426142;
637945206452048719;400.2576;4;3;1.5;1.1;2;700;2.14285714285714;-0.8660251;0.9999995;-0.6173458;1.255572;0.6427875;2.266045;0.4990147;1.984862;
637945206459377894;400.9875;4;3;1.5;1.1;2;730;2.05479452054795;0.9848077;1.673648;0.5207146;1.633543;-0.8660251;0.9999995;-0.6173458;1.255572;
637945206465333966;401.5848;4;3;1.5;1.1;2;597;2.51256281407035;-0.9848078;1.673648;-0.5011988;1.468967;0.9848077;1.673648;0.5207146;1.633543;
637945206474045524;402.4571;4;3;1.5;1.1;2;872;1.72018348623853;0.8660256;1;0.515451;1.26626;-0.9848078;1.673648;-0.5011988;1.468967;
637945206481141792;403.1666;4;3;1.5;1.1;2;709;2.11565585331453;-0.6427882;2.266044;-0.5682222;1.77988;0.8660256;1;0.515451;1.26626;
637945206488043024;403.8568;4;3;1.5;1.1;2;690;2.17391304347826;0.3420205;0.5603075;0.2703981;0.9236394;-0.6427882;2.266044;-0.5682222;1.77988;
637945206514097688;406.4538;4;3;3.5;0.2;2;1536;2.27864583333333;-0.3420197;0.5603072;-0.3228094;0.6559899;0;2.5;-0.03352701;2.412131;
637945206526230036;407.6751;4;3;3.5;0.2;2;1221;2.86650286650287;0.6427875;2.266045;0.6566419;2.167549;-0.3420197;0.5603072;-0.3228094;0.6559899;
637945206551013196;410.1541;4;3;3.5;0.2;2;2479;1.41185962081484;-0.8660251;0.9999995;-0.8206694;0.9577105;0.6427875;2.266045;0.6566419;2.167549;
637945206566101306;411.6628;4;3;3.5;0.2;2;1509;2.3194168323393;0.9848077;1.673648;0.9611437;1.713257;-0.8660251;0.9999995;-0.8206694;0.9577105;
637945206580093808;413.062;4;3;3.5;0.2;2;1399;2.50178699070765;-0.9848078;1.673648;-1.000132;1.650585;0.9848077;1.673648;0.9611437;1.713257;
637945206594197363;414.4721;4;3;3.5;0.2;2;1410;2.4822695035461;0.8660256;1;0.8496967;1.060524;-0.9848078;1.673648;-1.000132;1.650585;
637945206605083773;415.5609;4;3;3.5;0.2;2;1089;3.2139577594123;-0.6427882;2.266044;-0.6052387;2.216534;0.8660256;1;0.8496967;1.060524;
637945206613188427;416.3716;4;3;3.5;0.2;2;811;4.31565967940814;0.3420205;0.5603075;0.3038893;0.5797375;-0.6427882;2.266044;-0.6052387;2.216534;
637945206638187500;418.8708;4;3;4;0.1;1.4;1368;2.92397660818713;-0.2394138;0.8422151;-0.2136649;0.8803426;0;2.2;-0.02883717;2.187436;
637945206647394137;419.8025;4;3;4;0.1;1.4;932;4.29184549356223;0.4499513;2.036231;0.4196758;2.065814;-0.2394138;0.8422151;-0.2136649;0.8803426;
637945206659056227;420.9582;4;3;4;0.1;1.4;1156;3.46020761245675;-0.6062176;1.15;-0.592731;1.124599;0.4499513;2.036231;0.4196758;2.065814;
637945206666542562;421.7173;4;3;4;0.1;1.4;759;5.27009222661397;0.6893654;1.621554;0.6407185;1.631983;-0.6062176;1.15;-0.592731;1.124599;
637945206704045823;425.4572;4;3;4;0.1;1.4;3740;1.06951871657754;-0.6893655;1.621553;-0.6758537;1.597215;0.6893654;1.621554;0.6407185;1.631983;
637945206719125162;426.9654;4;3;4;0.1;1.4;1508;2.6525198938992;0.6062179;1.15;0.5961453;1.15876;-0.6893655;1.621553;-0.6758537;1.597215;
637945206732063303;428.2585;4;3;4;0.1;1.4;1293;3.09358081979892;-0.4499517;2.036231;-0.4462714;1.995151;0.6062179;1.15;0.5961453;1.15876;
637945206751471777;430.2104;4;3;4;0.1;1.4;1952;2.04918032786885;0.2394144;0.8422153;0.2112292;0.8834834;-0.4499517;2.036231;-0.4462714;1.995151;
637945206769114936;431.964;4;3;2.5;0.3;1.4;799;3.12891113892365;-0.2394138;0.8422151;-0.2045813;0.9554541;0;2.2;0.000898296;2.116618;
637945206778111545;432.8636;4;3;2.5;0.3;1.4;900;2.77777777777778;0.4499513;2.036231;0.4771911;1.911311;-0.2394138;0.8422151;-0.2045813;0.9554541;
637945206786102973;433.6629;4;3;2.5;0.3;1.4;799;3.12891113892365;-0.6062176;1.15;-0.6690055;1.192548;0.4499513;2.036231;0.4771911;1.911311;
637945206802095835;435.2619;4;3;2.5;0.3;1.4;1599;1.56347717323327;0.6893654;1.621554;0.5498224;1.637875;-0.6062176;1.15;-0.6690055;1.192548;
637945206812409359;436.2913;4;3;2.5;0.3;1.4;1029;2.42954324586978;-0.6893655;1.621553;-0.6790873;1.56584;0.6893654;1.621554;0.5498224;1.637875;
637945206822090354;437.2612;4;3;2.5;0.3;1.4;970;2.57731958762887;0.6062179;1.15;0.5774895;1.279485;-0.6893655;1.621553;-0.6790873;1.56584;
637945206833117326;438.3624;4;3;2.5;0.3;1.4;1099;2.27479526842584;-0.4499517;2.036231;-0.3497019;2.010942;0.6062179;1.15;0.5774895;1.279485;
637945206843074109;439.36;4;3;2.5;0.3;1.4;998;2.50501002004008;0.2394144;0.8422153;0.3050021;0.8590442;-0.4499517;2.036231;-0.3497019;2.010942;
637945206869098766;441.961;4;3;3;0.2;1.4;1600;1.875;-0.2394138;0.8422151;-0.2189055;0.8987862;0;2.2;-0.001911199;2.140735;
637945206879275587;442.9798;4;3;3;0.2;1.4;1019;2.94406280667321;0.4499513;2.036231;0.4849011;1.994848;-0.2394138;0.8422151;-0.2189055;0.8987862;
637945206890162729;444.0687;4;3;3;0.2;1.4;1089;2.75482093663912;-0.6062176;1.15;-0.6054053;1.224199;0.4499513;2.036231;0.4849011;1.994848;
637945206901615001;445.2247;4;3;3;0.2;1.4;1156;2.59515570934256;0.6893654;1.621554;0.7576268;1.600603;-0.6062176;1.15;-0.6054053;1.224199;
637945206913156271;446.3682;4;3;3;0.2;1.4;1143;2.6246719160105;-0.6893655;1.621553;-0.7328987;1.609665;0.6893654;1.621554;0.7576268;1.600603;
637945206920707625;447.1341;4;3;3;0.2;1.4;766;3.91644908616188;0.6062179;1.15;0.5364566;1.214883;-0.6893655;1.621553;-0.7328987;1.609665;
637945206931169498;448.1688;4;3;3;0.2;1.4;1035;2.89855072463768;-0.4499517;2.036231;-0.4647306;2.020702;0.6062179;1.15;0.5364566;1.214883;
637945206944136815;449.4663;4;3;3;0.2;1.4;1298;2.31124807395994;0.2394144;0.8422153;0.2040485;0.91052;-0.4499517;2.036231;-0.4647306;2.020702;
637945208299710335;585.0229;4;4;3;0.2;1.4;1123;2.67141585040071;-0.2394138;0.8422151;-0.1957664;0.9197594;0;2.2;0.04022364;2.121421;
637945208313382747;586.4014;4;4;3;0.2;1.4;1378;2.17706821480406;0.4499513;2.036231;0.3579782;1.996976;-0.2394138;0.8422151;-0.1957664;0.9197594;
637945208324764757;587.5286;4;4;3;0.2;1.4;1127;2.66193433895297;-0.6062176;1.15;-0.6259633;1.137177;0.4499513;2.036231;0.3579782;1.996976;
637945208340687571;589.1208;4;4;3;0.2;1.4;1592;1.88442211055276;0.6893654;1.621554;0.6384608;1.584216;-0.6062176;1.15;-0.6259633;1.137177;
637945208351779530;590.2304;4;4;3;0.2;1.4;1110;2.7027027027027;-0.6893655;1.621553;-0.64059;1.598639;0.6893654;1.621554;0.6384608;1.584216;
637945208359780944;591.0303;4;4;3;0.2;1.4;800;3.75;0.6062179;1.15;0.5649657;1.167856;-0.6893655;1.621553;-0.64059;1.598639;
637945208370677868;592.1198;4;4;3;0.2;1.4;1090;2.75229357798165;-0.4499517;2.036231;-0.4002629;1.970398;0.6062179;1.15;0.5649657;1.167856;
637945208378674281;592.9195;4;4;3;0.2;1.4;800;3.75;0.2394144;0.8422153;0.2310027;0.9081279;-0.4499517;2.036231;-0.4002629;1.970398;
637945208409684758;596.0208;4;4;4.5;0.1;2.2;1702;2.64394829612221;-0.3762217;0.4663379;-0.3783848;0.4533576;0;2.6;-4.967954E-05;2.59689;
637945208423865137;597.4382;4;4;4.5;0.1;2.2;1417;3.1757233592096;0.7070663;2.342649;0.6589267;2.342467;-0.3762217;0.4663379;-0.3783848;0.4533576;
637945208437852602;598.8373;4;4;4.5;0.1;2.2;1399;3.21658327376698;-0.9526277;0.9499994;-0.9168237;0.970787;0.7070663;2.342649;0.6589267;2.342467;
637945208453739612;600.4262;4;4;4.5;0.1;2.2;1589;2.83196979232222;1.083289;1.691013;1.088998;1.695447;-0.9526277;0.9499994;-0.9168237;0.970787;
637945208467702077;601.8228;4;4;4.5;0.1;2.2;1397;3.22118826055834;-1.083289;1.691012;-1.051687;1.666367;1.083289;1.691013;1.088998;1.695447;
637945208482754734;603.3262;4;4;4.5;0.1;2.2;1497;3.0060120240481;0.9526281;0.9500003;0.9525527;0.9821653;-1.083289;1.691012;-1.051687;1.666367;
637945208494090289;604.4716;4;4;4.5;0.1;2.2;1145;3.93013100436681;-0.7070671;2.342648;-0.6652085;2.368032;0.9526281;0.9500003;0.9525527;0.9821653;
637945208506737526;605.7242;4;4;4.5;0.1;2.2;1253;3.59138068635275;0.3762226;0.4663382;0.3800074;0.5141916;-0.7070671;2.342648;-0.6652085;2.368032;
637945208534717471;608.5239;4;4;4;0.1;1.4;1196;3.34448160535117;-0.2394138;0.8422151;-0.2370735;0.8321103;0;2.2;0.002883479;2.161114;
637945208548929977;609.9445;4;4;4;0.1;1.4;1421;2.81491907107671;0.4499513;2.036231;0.4507503;2.039994;-0.2394138;0.8422151;-0.2370735;0.8321103;
637945208564812980;611.5321;4;4;4;0.1;1.4;1588;2.51889168765743;-0.6062176;1.15;-0.5778782;1.175616;0.4499513;2.036231;0.4507503;2.039994;
637945208574714948;612.5233;4;4;4;0.1;1.4;991;4.03632694248234;0.6893654;1.621554;0.7168051;1.62753;-0.6062176;1.15;-0.5778782;1.175616;
637945208588802432;613.931;4;4;4;0.1;1.4;1408;2.84090909090909;-0.6893655;1.621553;-0.721997;1.617443;0.6893654;1.621554;0.7168051;1.62753;
637945208603085145;615.3602;4;4;4;0.1;1.4;1429;2.79916025192442;0.6062179;1.15;0.5749888;1.178772;-0.6893655;1.621553;-0.721997;1.617443;
637945208626799539;617.7309;4;4;4;0.1;1.4;2371;1.68705187684521;-0.4499517;2.036231;-0.4103901;2.025084;0.6062179;1.15;0.5749888;1.178772;
637945208639761826;619.0281;4;4;4;0.1;1.4;1297;3.0840400925212;0.2394144;0.8422153;0.2416677;0.8765906;-0.4499517;2.036231;-0.4103901;2.025084;
637945208656129232;620.6628;4;4;1.5;1.1;2;725;2.06896551724138;-0.3420197;0.5603072;-0.2117893;0.9936432;0;2.5;0.07706547;2.174267;
637945208663745582;621.4265;4;4;1.5;1.1;2;764;1.96335078534031;0.6427875;2.266045;0.4528255;2.028968;-0.3420197;0.5603072;-0.2117893;0.9936432;
637945208669846658;622.0368;4;4;1.5;1.1;2;610;2.45901639344262;-0.8660251;0.9999995;-0.4909157;1.206225;0.6427875;2.266045;0.4528255;2.028968;
637945208676787892;622.731;4;4;1.5;1.1;2;694;2.16138328530259;0.9848077;1.673648;0.6583863;1.600187;-0.8660251;0.9999995;-0.4909157;1.206225;
637945208682509351;623.314;4;4;1.5;1.1;2;583;2.57289879931389;-0.9848078;1.673648;-0.5291251;1.417534;0.9848077;1.673648;0.6583863;1.600187;
637945208689870650;624.0377;4;4;1.5;1.1;2;724;2.07182320441989;0.8660256;1;0.6172321;1.056126;-0.9848078;1.673648;-0.5291251;1.417534;
637945208699832411;625.0353;4;4;1.5;1.1;2;998;1.50300601202405;-0.6427882;2.266044;-0.4277097;2.076055;0.8660256;1;0.6172321;1.056126;
637945208707834536;625.8354;4;4;1.5;1.1;2;800;1.875;0.3420205;0.5603075;0.3135193;0.9440998;-0.6427882;2.266044;-0.4277097;2.076055;
637945208729955323;628.0469;4;4;2.5;0.3;1.4;1417;1.76429075511644;-0.2394138;0.8422151;-0.1130922;0.9203457;0;2.2;-0.03374663;2.085361;
637945208737951738;628.8463;4;4;2.5;0.3;1.4;799;3.12891113892365;0.4499513;2.036231;0.3251932;1.996374;-0.2394138;0.8422151;-0.1130922;0.9203457;
637945208747923496;629.8441;4;4;2.5;0.3;1.4;998;2.50501002004008;-0.6062176;1.15;-0.5627404;1.151419;0.4499513;2.036231;0.3251932;1.996374;
637945208756800065;630.7324;4;4;2.5;0.3;1.4;888;2.81531531531532;0.6893654;1.621554;0.6875439;1.62842;-0.6062176;1.15;-0.5627404;1.151419;
637945208763356217;631.3987;4;4;2.5;0.3;1.4;666;3.75375375375375;-0.6893655;1.621553;-0.5687885;1.534624;0.6893654;1.621554;0.6875439;1.62842;
637945208770802538;632.1321;4;4;2.5;0.3;1.4;733;3.4106412005457;0.6062179;1.15;0.7088663;1.106255;-0.6893655;1.621553;-0.5687885;1.534624;
637945208784790009;633.5313;4;4;2.5;0.3;1.4;1399;1.78699070764832;-0.4499517;2.036231;-0.4047373;2.064468;0.6062179;1.15;0.7088663;1.106255;
637945208791784707;634.2308;4;4;2.5;0.3;1.4;695;3.59712230215827;0.2394144;0.8422153;0.1988682;0.9713888;-0.4499517;2.036231;-0.4047373;2.064468;
637945208807782532;635.8305;4;4;2;0.6;1.8;788;2.53807106598985;-0.3078177;0.6542765;-0.1584615;0.8732995;0;2.4;0.05397922;2.277981;
637945208825885729;637.6404;4;4;2;0.6;1.8;1810;1.10497237569061;0.5785087;2.18944;0.4358659;2.161959;-0.3078177;0.6542765;-0.1584615;0.8732995;
637945208832661928;638.3291;4;4;2;0.6;1.8;689;2.90275761973875;-0.7794226;1.05;-0.4973703;1.093899;0.5785087;2.18944;0.4358659;2.161959;
637945208848872520;639.9391;4;4;2;0.6;1.8;1610;1.24223602484472;0.8863269;1.656283;0.701274;1.646361;-0.7794226;1.05;-0.4973703;1.093899;
637945208857865561;640.8386;4;4;2;0.6;1.8;899;2.22469410456062;-0.8863271;1.656283;-0.7099494;1.551111;0.8863269;1.656283;0.701274;1.646361;
637945208864996823;641.5512;4;4;2;0.6;1.8;713;2.80504908835905;0.779423;1.05;0.7555299;1.118097;-0.8863271;1.656283;-0.7099494;1.551111;
637945208872988236;642.3506;4;4;2;0.6;1.8;799;2.50312891113892;-0.5785094;2.18944;-0.5033685;2.156748;0.779423;1.05;0.7555299;1.118097;
637945208879354363;642.998;4;4;2;0.6;1.8;647;3.09119010819165;0.3078185;0.6542768;0.1863645;0.9113324;-0.5785094;2.18944;-0.5033685;2.156748;
637945208897963117;644.8473;4;4;3.5;0.2;2;944;3.70762711864407;-0.3420197;0.5603072;-0.3003809;0.6511958;0;2.5;0.05523614;2.429309;
637945208915951299;646.6469;4;4;3.5;0.2;2;1800;1.94444444444444;0.6427875;2.266045;0.573065;2.206399;-0.3420197;0.5603072;-0.3003809;0.6511958;
637945208932339194;648.2972;4;4;3.5;0.2;2;1650;2.12121212121212;-0.8660251;0.9999995;-0.769506;0.9776739;0.6427875;2.266045;0.573065;2.206399;
637945208942926252;649.344;4;4;3.5;0.2;2;1047;3.34288443170965;0.9848077;1.673648;1.025019;1.673743;-0.8660251;0.9999995;-0.769506;0.9776739;
637945208951057687;650.1578;4;4;3.5;0.2;2;814;4.2997542997543;-0.9848078;1.673648;-0.9274352;1.67165;0.9848077;1.673648;1.025019;1.673743;
637945208961049456;651.157;4;4;3.5;0.2;2;999;3.5035035035035;0.8660256;1;0.829579;0.9773543;-0.9848078;1.673648;-0.9274352;1.67165;
637945208978143887;652.8665;4;4;3.5;0.2;2;1709;2.04798127559977;-0.6427882;2.266044;-0.612457;2.283712;0.8660256;1;0.829579;0.9773543;
637945208986930442;653.7449;4;4;3.5;0.2;2;878;3.98633257403189;0.3420205;0.5603075;0.3812887;0.651715;-0.6427882;2.266044;-0.612457;2.283712;
637945209640262077;719.0776;4;5;4;0.1;1.4;1058;3.78071833648393;-0.2394138;0.8422151;-0.281545;0.8682997;0;2.2;0.02697991;2.186595;
637945209665256497;721.5767;4;5;4;0.1;1.4;2499;1.60064025610244;0.4499513;2.036231;0.4677644;2.037024;-0.2394138;0.8422151;-0.281545;0.8682997;
637945209699242452;724.9756;4;5;4;0.1;1.4;3399;1.17681671079729;-0.6062176;1.15;-0.5706295;1.158574;0.4499513;2.036231;0.4677644;2.037024;
637945209711236502;726.1753;4;5;4;0.1;1.4;1200;3.33333333333333;0.6893654;1.621554;0.6785542;1.638476;-0.6062176;1.15;-0.5706295;1.158574;
637945209725233968;727.5747;4;5;4;0.1;1.4;1399;2.85918513223731;-0.6893655;1.621553;-0.6900504;1.611629;0.6893654;1.621554;0.6785542;1.638476;
637945209736120894;728.6639;4;5;4;0.1;1.4;1089;3.67309458218549;0.6062179;1.15;0.5959224;1.126812;-0.6893655;1.621553;-0.6900504;1.611629;
637945209749213673;729.9732;4;5;4;0.1;1.4;1309;3.05576776165011;-0.4499517;2.036231;-0.4558972;2.040309;0.6062179;1.15;0.5959224;1.126812;
637945209769171998;731.9692;4;5;4;0.1;1.4;1970;2.03045685279188;0.2394144;0.8422153;0.2283929;0.8827485;-0.4499517;2.036231;-0.4558972;2.040309;
637945209789307813;733.982;4;5;3;0.2;1.4;900;3.33333333333333;-0.2394138;0.8422151;-0.2398935;0.9394847;0;2.2;0.02527572;2.168624;
637945209801294932;735.1812;4;5;3;0.2;1.4;1199;2.50208507089241;0.4499513;2.036231;0.4951009;2.0068;-0.2394138;0.8422151;-0.2398935;0.9394847;
637945209811306696;736.1807;4;5;3;0.2;1.4;1000;3;-0.6062176;1.15;-0.584222;1.115145;0.4499513;2.036231;0.4951009;2.0068;
637945209822178621;737.2693;4;5;3;0.2;1.4;1089;2.75482093663912;0.6893654;1.621554;0.6665112;1.591726;-0.6062176;1.15;-0.584222;1.115145;
637945209833425602;738.3931;4;5;3;0.2;1.4;1124;2.66903914590747;-0.6893655;1.621553;-0.7248612;1.622338;0.6893654;1.621554;0.6665112;1.591726;
637945209849928935;740.0408;4;5;3;0.2;1.4;1643;1.82592818015825;0.6062179;1.15;0.6022046;1.152125;-0.6893655;1.621553;-0.7248612;1.622338;
637945209868382195;741.89;4;5;3;0.2;1.4;1849;1.62249864791779;-0.4499517;2.036231;-0.3957975;2.022851;0.6062179;1.15;0.6022046;1.152125;
637945209888211257;743.8723;4;5;3;0.2;1.4;1979;1.51591712986357;0.2394144;0.8422153;0.2360658;0.814742;-0.4499517;2.036231;-0.3957975;2.022851;
637945209906704519;745.7329;4;5;1.5;1.1;2;1156;1.29757785467128;-0.3420197;0.5603072;0.0497838;0.9340384;0;2.5;0.063526;2.198178;
637945209915271034;746.578;4;5;1.5;1.1;2;845;1.77514792899408;0.6427875;2.266045;0.4597992;1.917105;-0.3420197;0.5603072;0.0497838;0.9340384;
637945209923257630;747.377;4;5;1.5;1.1;2;799;1.87734668335419;-0.8660251;0.9999995;-0.7647766;1.288631;0.6427875;2.266045;0.4597992;1.917105;
637945209929783785;748.0409;4;5;1.5;1.1;2;664;2.25903614457831;0.9848077;1.673648;0.500262;1.433898;-0.8660251;0.9999995;-0.7647766;1.288631;
637945209936273265;748.6787;4;5;1.5;1.1;2;638;2.35109717868339;-0.9848078;1.673648;-0.4839091;1.519628;0.9848077;1.673648;0.500262;1.433898;
637945209944374898;749.4873;4;5;1.5;1.1;2;809;1.85414091470952;0.8660256;1;0.6222472;1.218324;-0.9848078;1.673648;-0.4839091;1.519628;
637945209951251115;750.1755;4;5;1.5;1.1;2;688;2.18023255813953;-0.6427882;2.266044;-0.488861;2.043541;0.8660256;1;0.6222472;1.218324;
637945209958347367;750.8863;4;5;1.5;1.1;2;711;2.10970464135021;0.3420205;0.5603075;0.2339754;0.9539284;-0.6427882;2.266044;-0.488861;2.043541;
637945209983224218;753.3738;4;5;2;0.6;1.8;1279;1.56372165754496;-0.3078177;0.6542765;-0.2143744;0.6677721;0;2.4;0.04558856;2.36672;
637945209995428061;754.5944;4;5;2;0.6;1.8;1221;1.63800163800164;0.5785087;2.18944;0.4816681;2.098765;-0.3078177;0.6542765;-0.2143744;0.6677721;
637945210004239859;755.475;4;5;2;0.6;1.8;864;2.31481481481481;-0.7794226;1.05;-0.7354641;1.194154;0.5785087;2.18944;0.4816681;2.098765;
637945210011416128;756.1936;4;5;2;0.6;1.8;719;2.78164116828929;0.8863269;1.656283;0.6788862;1.493757;-0.7794226;1.05;-0.7354641;1.194154;
637945210022408071;757.2928;4;5;2;0.6;1.8;1099;1.81983621474067;-0.8863271;1.656283;-0.7222813;1.620321;0.8863269;1.656283;0.6788862;1.493757;
637945210029739363;758.0366;4;5;2;0.6;1.8;744;2.68817204301075;0.779423;1.05;0.605196;1.289388;-0.8863271;1.656283;-0.7222813;1.620321;
637945210039291049;758.9803;4;5;2;0.6;1.8;944;2.11864406779661;-0.5785094;2.18944;-0.6243853;2.036423;0.779423;1.05;0.605196;1.289388;
637945210049533611;760.0043;4;5;2;0.6;1.8;1024;1.953125;0.3078185;0.6542768;0.3398923;0.8739004;-0.5785094;2.18944;-0.6243853;2.036423;
637945210071847553;762.2474;4;5;4.5;0.1;2.2;1054;4.26944971537002;-0.3762217;0.4663379;-0.3347161;0.4930676;0;2.6;-0.01070309;2.570065;
637945210082484431;763.3007;4;5;4.5;0.1;2.2;1053;4.27350427350427;0.7070663;2.342649;0.712103;2.314073;-0.3762217;0.4663379;-0.3347161;0.4930676;
637945210103411860;765.3913;4;5;4.5;0.1;2.2;2091;2.15208034433285;-0.9526277;0.9499994;-0.950058;0.9757725;0.7070663;2.342649;0.712103;2.314073;
637945210125385745;767.5905;4;5;4.5;0.1;2.2;2199;2.04638472032742;1.083289;1.691013;1.046544;1.712926;-0.9526277;0.9499994;-0.950058;0.9757725;
637945210138348032;768.8869;4;5;4.5;0.1;2.2;1296;3.47222222222222;-1.083289;1.691012;-1.037177;1.67207;1.083289;1.691013;1.046544;1.712926;
637945210152372093;770.2892;4;5;4.5;0.1;2.2;1402;3.20970042796006;0.9526281;0.9500003;0.9341539;0.9904957;-1.083289;1.691012;-1.037177;1.67207;
637945210181474210;773.1984;4;5;4.5;0.1;2.2;2909;1.54692334135442;-0.7070671;2.342648;-0.6632585;2.320617;0.9526281;0.9500003;0.9341539;0.9904957;
637945210199668143;775.0182;4;5;4.5;0.1;2.2;1816;2.47797356828194;0.3762226;0.4663382;0.3590946;0.4646894;-0.7070671;2.342648;-0.6632585;2.320617;
637945210224649866;777.5165;4;5;2.5;0.3;1.4;1120;2.23214285714286;-0.2394138;0.8422151;-0.215091;0.8621875;0;2.2;-0.01600699;2.191295;
637945210236526965;778.7043;4;5;2.5;0.3;1.4;1188;2.1043771043771;0.4499513;2.036231;0.4540248;2.056952;-0.2394138;0.8422151;-0.215091;0.8621875;
637945210250429417;780.095;4;5;2.5;0.3;1.4;1391;1.79726815240834;-0.6062176;1.15;-0.5268354;1.226867;0.4499513;2.036231;0.4540248;2.056952;
637945210271434274;782.1934;4;5;2.5;0.3;1.4;2098;1.19161105815062;0.6893654;1.621554;0.6917406;1.592205;-0.6062176;1.15;-0.5268354;1.226867;
637945210291618014;784.2131;4;5;2.5;0.3;1.4;2020;1.23762376237624;-0.6893655;1.621553;-0.5718801;1.626664;0.6893654;1.621554;0.6917406;1.592205;
637945210302464930;785.2984;4;5;2.5;0.3;1.4;1085;2.30414746543779;0.6062179;1.15;0.5659227;1.207114;-0.6893655;1.621553;-0.5718801;1.626664;
637945210313596900;786.4113;4;5;2.5;0.3;1.4;1113;2.24618149146451;-0.4499517;2.036231;-0.4112035;2.028914;0.6062179;1.15;0.5659227;1.207114;
637945210324593840;787.5109;4;5;2.5;0.3;1.4;1100;2.27272727272727;0.2394144;0.8422153;0.2687843;0.9456035;-0.4499517;2.036231;-0.4112035;2.028914;
637945210354514520;790.5032;4;5;3.5;0.2;2;1604;2.18204488778055;-0.3420197;0.5603072;-0.2915398;0.6258005;0;2.5;0.01616649;2.508555;
637945210366463039;791.6978;4;5;3.5;0.2;2;1195;2.92887029288703;0.6427875;2.266045;0.6798339;2.278499;-0.3420197;0.5603072;-0.2915398;0.6258005;
637945210375459623;792.5979;4;5;3.5;0.2;2;900;3.88888888888889;-0.8660251;0.9999995;-0.8522161;1.021807;0.6427875;2.266045;0.6798339;2.278499;
637945210384466426;793.4985;4;5;3.5;0.2;2;901;3.88457269700333;0.9848077;1.673648;0.9328093;1.650371;-0.8660251;0.9999995;-0.8522161;1.021807;
637945210393473017;794.3992;4;5;3.5;0.2;2;901;3.88457269700333;-0.9848078;1.673648;-0.9535418;1.70721;0.9848077;1.673648;0.9328093;1.650371;
637945210400844320;795.1474;4;5;3.5;0.2;2;748;4.67914438502674;0.8660256;1;0.8011947;1.061456;-0.9848078;1.673648;-0.9535418;1.70721;
637945210411471195;796.1971;4;5;3.5;0.2;2;1050;3.33333333333333;-0.6427882;2.266044;-0.5966902;2.294655;0.8660256;1;0.8011947;1.061456;
637945210420912864;797.1537;4;5;3.5;0.2;2;957;3.65726227795193;0.3420205;0.5603075;0.3969285;0.6337841;-0.6427882;2.266044;-0.5966902;2.294655;
637945211160860156;871.1372;4;6;3.5;0.2;2;1299;2.69438029253272;-0.3420197;0.5603072;-0.3205645;0.6454353;0;2.5;0.003824646;2.500023;
637945211177953175;872.8469;4;6;3.5;0.2;2;1710;2.04678362573099;0.6427875;2.266045;0.5993171;2.254786;-0.3420197;0.5603072;-0.3205645;0.6454353;
637945211191839675;874.2357;4;6;3.5;0.2;2;1389;2.51979841612671;-0.8660251;0.9999995;-0.7893667;0.9685017;0.6427875;2.266045;0.5993171;2.254786;
637945211202939979;875.3454;4;6;3.5;0.2;2;1105;3.16742081447964;0.9848077;1.673648;1.018203;1.680355;-0.8660251;0.9999995;-0.7893667;0.9685017;
637945211214937099;876.5445;4;6;3.5;0.2;2;1199;2.91909924937448;-0.9848078;1.673648;-0.9872959;1.595243;0.9848077;1.673648;1.018203;1.680355;
637945211224953862;877.5458;4;6;3.5;0.2;2;1001;3.4965034965035;0.8660256;1;0.8722088;0.9173862;-0.9848078;1.673648;-0.9872959;1.595243;
637945211238861509;878.9377;4;6;3.5;0.2;2;1392;2.51436781609195;-0.6427882;2.266044;-0.5801899;2.276312;0.8660256;1;0.8722088;0.9173862;
637945211260041370;881.0557;4;6;3.5;0.2;2;2118;1.65250236071766;0.3420205;0.5603075;0.2670586;0.6127399;-0.6427882;2.266044;-0.5801899;2.276312;
637945211303027326;885.354;4;6;4.5;0.1;2.2;1606;2.80199252801993;-0.3762217;0.4663379;-0.3975649;0.4556434;0;2.6;-0.001279863;2.552653;
637945211323879379;887.4397;4;6;4.5;0.1;2.2;2086;2.15723873441994;0.7070663;2.342649;0.6644319;2.337932;-0.3762217;0.4663379;-0.3975649;0.4556434;
637945211336131541;888.6628;4;6;4.5;0.1;2.2;1223;3.67947669664759;-0.9526277;0.9499994;-0.9246524;0.9315952;0.7070663;2.342649;0.6644319;2.337932;
637945211356959525;890.7472;4;6;4.5;0.1;2.2;2084;2.15930902111324;1.083289;1.691013;1.056297;1.725837;-0.9526277;0.9499994;-0.9246524;0.9315952;
637945211372522277;892.3148;4;6;4.5;0.1;2.2;1568;2.86989795918367;-1.083289;1.691012;-1.120752;1.699692;1.083289;1.691013;1.056297;1.725837;
637945211395021732;894.5539;4;6;4.5;0.1;2.2;2239;2.00982581509603;0.9526281;0.9500003;0.9571497;0.9759341;-1.083289;1.691012;-1.120752;1.699692;
637945211411175021;896.1692;4;6;4.5;0.1;2.2;1615;2.78637770897833;-0.7070671;2.342648;-0.6868012;2.375586;0.9526281;0.9500003;0.9571497;0.9759341;
637945211433054079;898.3569;4;6;4.5;0.1;2.2;2188;2.05667276051188;0.3762226;0.4663382;0.4158503;0.4732757;-0.7070671;2.342648;-0.6868012;2.375586;
637945211446966538;899.7479;4;6;1.5;1.1;2;590;2.54237288135593;-0.3420197;0.5603072;-0.03244114;0.7622393;0;2.5;0.06788477;2.167512;
637945211467050236;901.7565;4;6;1.5;1.1;2;2009;0.746640119462419;0.6427875;2.266045;0.4695174;1.902598;-0.3420197;0.5603072;-0.03244114;0.7622393;
637945211475056652;902.5566;4;6;1.5;1.1;2;800;1.875;-0.8660251;0.9999995;-0.5532352;1.203778;0.6427875;2.266045;0.4695174;1.902598;
637945211484138255;903.4653;4;6;1.5;1.1;2;909;1.65016501650165;0.9848077;1.673648;0.714236;1.462094;-0.8660251;0.9999995;-0.5532352;1.203778;
637945211492079654;904.2576;4;6;1.5;1.1;2;792;1.89393939393939;-0.9848078;1.673648;-0.6151078;1.541024;0.9848077;1.673648;0.714236;1.462094;
637945211512313817;906.2798;4;6;1.5;1.1;2;2022;0.741839762611276;0.8660256;1;0.5364268;1.209038;-0.9848078;1.673648;-0.6151078;1.541024;
637945211521120375;907.1637;4;6;1.5;1.1;2;884;1.69683257918552;-0.6427882;2.266044;-0.4124793;1.998712;0.8660256;1;0.5364268;1.209038;
637945211528056599;907.8542;4;6;1.5;1.1;2;690;2.17391304347826;0.3420205;0.5603075;0.4455293;0.9221398;-0.6427882;2.266044;-0.4124793;1.998712;
637945211548240159;909.8748;4;6;3;0.2;1.4;1053;2.84900284900285;-0.2394138;0.8422151;-0.2032429;0.9231051;0;2.2;0.04178575;2.112645;
637945211559239518;910.9756;4;6;3;0.2;1.4;1101;2.72479564032698;0.4499513;2.036231;0.3945468;2.031009;-0.2394138;0.8422151;-0.2032429;0.9231051;
637945211572062507;912.2576;4;6;3;0.2;1.4;1282;2.34009360374415;-0.6062176;1.15;-0.6467828;1.175502;0.4499513;2.036231;0.3945468;2.031009;
637945211589085515;913.9604;4;6;3;0.2;1.4;1703;1.76159718144451;0.6893654;1.621554;0.6783243;1.601149;-0.6062176;1.15;-0.6467828;1.175502;
637945211600082886;915.0598;4;6;3;0.2;1.4;1099;2.72975432211101;-0.6893655;1.621553;-0.6154756;1.642019;0.6893654;1.621554;0.6783243;1.601149;
637945211611039822;916.1555;4;6;3;0.2;1.4;1088;2.75735294117647;0.6062179;1.15;0.5949488;1.1911;-0.6893655;1.621553;-0.6154756;1.642019;
637945211622111781;917.2612;4;6;3;0.2;1.4;1106;2.7124773960217;-0.4499517;2.036231;-0.3857245;1.979227;0.6062179;1.15;0.5949488;1.1911;
637945211629110370;917.9626;4;6;3;0.2;1.4;701;4.27960057061341;0.2394144;0.8422153;0.2020459;0.8977593;-0.4499517;2.036231;-0.3857245;1.979227;
637945211647059002;919.7576;4;6;2.5;0.3;1.4;794;3.14861460957179;-0.2394138;0.8422151;-0.2138501;0.9493098;0;2.2;0.05401466;2.193188;
637945211663163636;921.3678;4;6;2.5;0.3;1.4;1610;1.5527950310559;0.4499513;2.036231;0.3658451;1.962973;-0.2394138;0.8422151;-0.2138501;0.9493098;
637945211673160402;922.3674;4;6;2.5;0.3;1.4;1000;2.5;-0.6062176;1.15;-0.4792449;1.197153;0.4499513;2.036231;0.3658451;1.962973;
637945211682051975;923.2569;4;6;2.5;0.3;1.4;889;2.81214848143982;0.6893654;1.621554;0.6909721;1.642223;-0.6062176;1.15;-0.4792449;1.197153;
637945211692076154;924.2573;4;6;2.5;0.3;1.4;1000;2.5;-0.6893655;1.621553;-0.6636045;1.672696;0.6893654;1.621554;0.6909721;1.642223;
637945211701252770;925.1765;4;6;2.5;0.3;1.4;919;2.72034820457019;0.6062179;1.15;0.5848425;1.159241;-0.6893655;1.621553;-0.6636045;1.672696;
637945211709560070;926.0048;4;6;2.5;0.3;1.4;828;3.01932367149758;-0.4499517;2.036231;-0.4832397;2.040468;0.6062179;1.15;0.5848425;1.159241;
637945211719376522;926.989;4;6;2.5;0.3;1.4;984;2.54065040650406;0.2394144;0.8422153;0.1753482;0.8308747;-0.4499517;2.036231;-0.4832397;2.040468;
637945211735274327;928.5769;4;6;2;0.6;1.8;844;2.3696682464455;-0.3078177;0.6542765;-0.213743;0.7815418;0;2.4;0.108548;2.14297;
637945211769154975;931.9673;4;6;2;0.6;1.8;3390;0.589970501474926;0.5785087;2.18944;0.5281984;2.017579;-0.3078177;0.6542765;-0.213743;0.7815418;
637945211778156564;932.8646;4;6;2;0.6;1.8;897;2.22965440356745;-0.7794226;1.05;-0.5402253;1.150823;0.5785087;2.18944;0.5281984;2.017579;
637945211785767910;933.6393;4;6;2;0.6;1.8;775;2.58064516129032;0.8863269;1.656283;0.6421748;1.504969;-0.7794226;1.05;-0.5402253;1.150823;
637945211797206904;934.7721;4;6;2;0.6;1.8;1133;1.76522506619594;-0.8863271;1.656283;-0.7477441;1.572558;0.8863269;1.656283;0.6421748;1.504969;
637945211816315326;936.6824;4;6;2;0.6;1.8;1910;1.04712041884817;0.779423;1.05;0.6160504;1.070474;-0.8863271;1.656283;-0.7477441;1.572558;
637945211824611788;937.5234;4;6;2;0.6;1.8;841;2.37812128418549;-0.5785094;2.18944;-0.5594403;1.90143;0.779423;1.05;0.6160504;1.070474;
637945211831750988;938.2372;4;6;2;0.6;1.8;714;2.80112044817927;0.3078185;0.6542768;0.4032665;0.9376286;-0.5785094;2.18944;-0.5594403;1.90143;
637945211857178878;940.7694;4;6;4;0.1;1.4;889;4.49943757030371;-0.2394138;0.8422151;-0.2288987;0.8468912;0;2.2;0.0005060583;2.189933;
637945211875397449;942.5909;4;6;4;0.1;1.4;1821;2.19659527732015;0.4499513;2.036231;0.4570854;2.033607;-0.2394138;0.8422151;-0.2288987;0.8468912;
637945211889174884;943.9693;4;6;4;0.1;1.4;1378;2.90275761973875;-0.6062176;1.15;-0.556748;1.155654;0.4499513;2.036231;0.4570854;2.033607;
637945211909275167;945.9786;4;6;4;0.1;1.4;2008;1.99203187250996;0.6893654;1.621554;0.6883583;1.627614;-0.6062176;1.15;-0.556748;1.155654;
637945211932217904;948.273;4;6;4;0.1;1.4;2294;1.743679163034;-0.6893655;1.621553;-0.7322869;1.644396;0.6893654;1.621554;0.6883583;1.627614;
637945211958257701;950.877;4;6;4;0.1;1.4;2604;1.53609831029186;0.6062179;1.15;0.6201118;1.155396;-0.6893655;1.621553;-0.7322869;1.644396;
637945211971234985;952.1747;4;6;4;0.1;1.4;1298;3.08166409861325;-0.4499517;2.036231;-0.4499678;2.028707;0.6062179;1.15;0.6201118;1.155396;
637945211989795656;954.0419;4;6;4;0.1;1.4;1867;2.14247455811462;0.2394144;0.8422153;0.2512887;0.8894016;-0.4499517;2.036231;-0.4499678;2.028707;
637945212694435441;1024.495;4;7;2;0.6;1.8;1000;2;-0.3078177;0.6542765;-0.2743803;0.8223525;0;2.4;-0.0008922871;2.187591;
637945212705471937;1025.597;4;7;2;0.6;1.8;1102;1.81488203266788;0.5785087;2.18944;0.4001386;2.007968;-0.3078177;0.6542765;-0.2743803;0.8223525;
637945212715468699;1026.598;4;7;2;0.6;1.8;1002;1.99600798403194;-0.7794226;1.05;-0.6636736;1.191126;0.5785087;2.18944;0.4001386;2.007968;
637945212726535659;1027.705;4;7;2;0.6;1.8;1106;1.80831826401447;0.8863269;1.656283;0.7357235;1.603972;-0.7794226;1.05;-0.6636736;1.191126;
637945212736412402;1028.692;4;7;2;0.6;1.8;988;2.02429149797571;-0.8863271;1.656283;-0.6343446;1.612402;0.8863269;1.656283;0.7357235;1.603972;
637945212745524011;1029.604;4;7;2;0.6;1.8;911;2.1953896816685;0.779423;1.05;0.5849975;1.206148;-0.8863271;1.656283;-0.6343446;1.612402;
637945212755545780;1030.605;4;7;2;0.6;1.8;1002;1.99600798403194;-0.5785094;2.18944;-0.3857168;2.125945;0.779423;1.05;0.5849975;1.206148;
637945212774737002;1032.525;4;7;2;0.6;1.8;1920;1.04166666666667;0.3078185;0.6542768;0.2800421;0.8258907;-0.5785094;2.18944;-0.3857168;2.125945;
637945212791624992;1034.213;4;7;1.5;1.1;2;912;1.64473684210526;-0.3420197;0.5603072;-0.2117446;1.025363;0;2.5;0.1084318;2.015998;
637945212800426537;1035.094;4;7;1.5;1.1;2;880;1.70454545454545;0.6427875;2.266045;0.4071211;1.935881;-0.3420197;0.5603072;-0.2117446;1.025363;
637945212809607829;1036.012;4;7;1.5;1.1;2;918;1.63398692810458;-0.8660251;0.9999995;-0.5393053;1.22854;0.6427875;2.266045;0.4071211;1.935881;
637945212817594238;1036.811;4;7;1.5;1.1;2;799;1.87734668335419;0.9848077;1.673648;0.6139159;1.559751;-0.8660251;0.9999995;-0.5393053;1.22854;
637945212825610655;1037.612;4;7;1.5;1.1;2;801;1.87265917602996;-0.9848078;1.673648;-0.6553905;1.611547;0.9848077;1.673648;0.6139159;1.559751;
637945212833612073;1038.412;4;7;1.5;1.1;2;800;1.875;0.8660256;1;0.6005545;1.17027;-0.9848078;1.673648;-0.6553905;1.611547;
637945212849509870;1040.001;4;7;1.5;1.1;2;1589;0.943989930774072;-0.6427882;2.266044;-0.3519567;1.907881;0.8660256;1;0.6005545;1.17027;
637945212859467327;1040.998;4;7;1.5;1.1;2;997;1.50451354062187;0.3420205;0.5603075;0.2405626;0.9790783;-0.6427882;2.266044;-0.3519567;1.907881;
637945212897477586;1044.798;4;7;4.5;0.1;2.2;1477;3.0467163168585;-0.3762217;0.4663379;-0.3698808;0.5018516;0;2.6;-0.01726957;2.590425;
637945212913328733;1046.395;4;7;4.5;0.1;2.2;1597;2.81778334376957;0.7070663;2.342649;0.7454864;2.362523;-0.3762217;0.4663379;-0.3698808;0.5018516;
637945212929661621;1048.017;4;7;4.5;0.1;2.2;1622;2.77435265104809;-0.9526277;0.9499994;-0.9405925;0.9472619;0.7070663;2.342649;0.7454864;2.362523;
637945212948659565;1049.916;4;7;4.5;0.1;2.2;1897;2.37216657880865;1.083289;1.691013;1.047395;1.665613;-0.9526277;0.9499994;-0.9405925;0.9472619;
637945212961527038;1051.204;4;7;4.5;0.1;2.2;1288;3.49378881987578;-1.083289;1.691012;-1.115586;1.696413;1.083289;1.691013;1.047395;1.665613;
637945212978630270;1052.914;4;7;4.5;0.1;2.2;1710;2.63157894736842;0.9526281;0.9500003;0.9617093;0.9797013;-1.083289;1.691012;-1.115586;1.696413;
637945213001537394;1055.205;4;7;4.5;0.1;2.2;2280;1.97368421052632;-0.7070671;2.342648;-0.7029469;2.30551;0.9526281;0.9500003;0.9617093;0.9797013;
637945213017619509;1056.813;4;7;4.5;0.1;2.2;1608;2.79850746268657;0.3762226;0.4663382;0.3698985;0.4905269;-0.7070671;2.342648;-0.7029469;2.30551;
637945213039592530;1059.011;4;7;2.5;0.3;1.4;1009;2.47770069375619;-0.2394138;0.8422151;-0.2398241;0.9431758;0;2.2;-0.0005376693;2.138266;
637945213049724503;1060.023;4;7;2.5;0.3;1.4;1012;2.4703557312253;0.4499513;2.036231;0.4049091;2.033399;-0.2394138;0.8422151;-0.2398241;0.9431758;
637945213059591240;1061.01;4;7;2.5;0.3;1.4;987;2.53292806484296;-0.6062176;1.15;-0.6576061;1.280466;0.4499513;2.036231;0.4049091;2.033399;
637945213070713124;1062.122;4;7;2.5;0.3;1.4;1112;2.24820143884892;0.6893654;1.621554;0.5844623;1.593316;-0.6062176;1.15;-0.6576061;1.280466;
637945213086704015;1063.722;4;7;2.5;0.3;1.4;1599;1.56347717323327;-0.6893655;1.621553;-0.6324252;1.641623;0.6893654;1.621554;0.5844623;1.593316;
637945213101566641;1065.208;4;7;2.5;0.3;1.4;1486;1.68236877523553;0.6062179;1.15;0.5019243;1.164218;-0.6893655;1.621553;-0.6324252;1.641623;
637945213111594967;1066.21;4;7;2.5;0.3;1.4;1002;2.49500998003992;-0.4499517;2.036231;-0.3875341;1.994736;0.6062179;1.15;0.5019243;1.164218;
637945213121722260;1067.222;4;7;2.5;0.3;1.4;1002;2.49500998003992;0.2394144;0.8422153;0.1893452;0.9098412;-0.4499517;2.036231;-0.3875341;1.994736;
637945213144548656;1069.506;4;7;3;0.2;1.4;1042;2.87907869481766;-0.2394138;0.8422151;-0.2378377;0.8903633;0;2.2;0.006506884;2.101647;
637945213161672409;1071.218;4;7;3;0.2;1.4;1712;1.75233644859813;0.4499513;2.036231;0.4892934;2.052606;-0.2394138;0.8422151;-0.2378377;0.8903633;
637945213175538109;1072.605;4;7;3;0.2;1.4;1387;2.16294160057678;-0.6062176;1.15;-0.5731081;1.20399;0.4499513;2.036231;0.4892934;2.052606;
637945213192751141;1074.326;4;7;3;0.2;1.4;1722;1.74216027874564;0.6893654;1.621554;0.6851408;1.613015;-0.6062176;1.15;-0.5731081;1.20399;
637945213203633305;1075.414;4;7;3;0.2;1.4;1088;2.75735294117647;-0.6893655;1.621553;-0.682124;1.665781;0.6893654;1.621554;0.6851408;1.613015;
637945213213555053;1076.406;4;7;3;0.2;1.4;992;3.0241935483871;0.6062179;1.15;0.6244724;1.177369;-0.6893655;1.621553;-0.682124;1.665781;
637945213224737029;1077.525;4;7;3;0.2;1.4;1119;2.68096514745308;-0.4499517;2.036231;-0.4450193;2.063517;0.6062179;1.15;0.6244724;1.177369;
637945213235713928;1078.623;4;7;3;0.2;1.4;1098;2.73224043715847;0.2394144;0.8422153;0.1961827;0.8333058;-0.4499517;2.036231;-0.4450193;2.063517;
637945213268757046;1081.926;4;7;4;0.1;1.4;1691;2.36546422235364;-0.2394138;0.8422151;-0.2155252;0.8731166;0;2.2;-0.03026205;2.187958;
637945213284743706;1083.524;4;7;4;0.1;1.4;1598;2.50312891113892;0.4499513;2.036231;0.4158755;2.031097;-0.2394138;0.8422151;-0.2155252;0.8731166;
637945213294710470;1084.522;4;7;4;0.1;1.4;998;4.00801603206413;-0.6062176;1.15;-0.5720207;1.185334;0.4499513;2.036231;0.4158755;2.031097;
637945213305802429;1085.631;4;7;4;0.1;1.4;1109;3.6068530207394;0.6893654;1.621554;0.7121353;1.648122;-0.6062176;1.15;-0.5720207;1.185334;
637945213330713122;1088.12;4;7;4;0.1;1.4;2489;1.60707111289675;-0.6893655;1.621553;-0.6821969;1.629542;0.6893654;1.621554;0.7121353;1.648122;
637945213344691129;1089.52;4;7;4;0.1;1.4;1400;2.85714285714286;0.6062179;1.15;0.6262469;1.127838;-0.6893655;1.621553;-0.6821969;1.629542;
637945213356778952;1090.729;4;7;4;0.1;1.4;1209;3.3085194375517;-0.4499517;2.036231;-0.4404126;2.039465;0.6062179;1.15;0.6262469;1.127838;
637945213366804561;1091.73;4;7;4;0.1;1.4;1001;3.996003996004;0.2394144;0.8422153;0.2737855;0.8463391;-0.4499517;2.036231;-0.4404126;2.039465;
637945213394796639;1094.529;4;7;3.5;0.2;2;1404;2.49287749287749;-0.3420197;0.5603072;-0.3268519;0.6080724;0;2.5;-0.01760362;2.480273;
637945213407723918;1095.824;4;7;3.5;0.2;2;1294;2.7047913446677;0.6427875;2.266045;0.6207605;2.228136;-0.3420197;0.5603072;-0.3268519;0.6080724;
637945213419293545;1096.991;4;7;3.5;0.2;2;1168;2.99657534246575;-0.8660251;0.9999995;-0.7747448;1.036559;0.6427875;2.266045;0.6207605;2.228136;
637945213435749094;1098.626;4;7;3.5;0.2;2;1634;2.14198286413709;0.9848077;1.673648;0.9336324;1.685349;-0.8660251;0.9999995;-0.7747448;1.036559;
637945213446846052;1099.736;4;7;3.5;0.2;2;1110;3.15315315315315;-0.9848078;1.673648;-0.8952254;1.690944;0.9848077;1.673648;0.9336324;1.685349;
637945213465734389;1101.625;4;7;3.5;0.2;2;1889;1.85283218634198;0.8660256;1;0.8527551;1.048466;-0.9848078;1.673648;-0.8952254;1.690944;
637945213477721507;1102.824;4;7;3.5;0.2;2;1199;2.91909924937448;-0.6427882;2.266044;-0.6298265;2.23171;0.8660256;1;0.8527551;1.048466;
637945213490753637;1104.125;4;7;3.5;0.2;2;1302;2.68817204301075;0.3420205;0.5603075;0.2717453;0.5642287;-0.6427882;2.266044;-0.6298265;2.23171;
