637945424640870269;75.67229;12;1;3;0.2;1.4;1312;2.28658536585366;-0.2394138;0.8422151;-0.1950991;0.9055568;0;2.2;-0.008806622;2.101961;
637945424650241908;76.62193;12;1;3;0.2;1.4;950;3.15789473684211;0.4499513;2.036231;0.368172;1.978846;-0.2394138;0.8422151;-0.1950991;0.9055568;
637945424659718568;77.55883;12;1;3;0.2;1.4;937;3.2017075773746;-0.6062176;1.15;-0.6820372;1.152981;0.4499513;2.036231;0.368172;1.978846;
637945424667714963;78.35815;12;1;3;0.2;1.4;799;3.75469336670839;0.6893654;1.621554;0.6331873;1.668589;-0.6062176;1.15;-0.6820372;1.152981;
637945424675711361;79.15794;12;1;3;0.2;1.4;800;3.75;-0.6893655;1.621553;-0.596881;1.617118;0.6893654;1.621554;0.6331873;1.668589;
637945424684817955;80.06876;12;1;3;0.2;1.4;911;3.29308452250274;0.6062179;1.15;0.5711969;1.161229;-0.6893655;1.621553;-0.596881;1.617118;
637945424696219947;81.2197;12;1;3;0.2;1.4;1151;2.60642919200695;-0.4499517;2.036231;-0.3736108;1.971874;0.6062179;1.15;0.5711969;1.161229;
637945424710837501;82.66994;12;1;3;0.2;1.4;1450;2.06896551724138;0.2394144;0.8422153;0.2557668;0.9278501;-0.4499517;2.036231;-0.3736108;1.971874;
637945424811750329;92.7624;12;1;4.5;0.1;2.2;5690;0.790861159929701;-0.3762217;0.4663379;-0.3627611;0.447252;0;2.6;-0.01488429;2.562035;
637945424827753127;94.36193;12;1;4.5;0.1;2.2;1600;2.8125;0.7070663;2.342649;0.6982455;2.378264;-0.3762217;0.4663379;-0.3627611;0.447252;
637945424894820577;101.0711;12;1;4.5;0.1;2.2;5975;0.753138075313808;-0.9526277;0.9499994;-0.9266627;0.9639207;0.7070663;2.342649;0.6982455;2.378264;
637945424934322483;105.0329;12;1;4.5;0.1;2.2;3155;1.42630744849445;1.083289;1.691013;1.128407;1.684259;-0.9526277;0.9499994;-0.9266627;0.9639207;
637945424974021670;108.9899;12;1;4.5;0.1;2.2;3942;1.14155251141552;-1.083289;1.691012;-1.065424;1.669911;1.083289;1.691013;1.128407;1.684259;
637945424990859787;110.6755;12;1;4.5;0.1;2.2;1681;2.67697798929209;0.9526281;0.9500003;0.9364855;0.9778354;-1.083289;1.691012;-1.065424;1.669911;
637945425046963077;116.2861;12;1;4.5;0.1;2.2;5610;0.802139037433155;-0.7070671;2.342648;-0.6922646;2.29875;0.9526281;0.9500003;0.9364855;0.9778354;
637945425098814225;121.4706;12;1;4.5;0.1;2.2;5184;0.868055555555555;0.3762226;0.4663382;0.387955;0.4914699;-0.7070671;2.342648;-0.6922646;2.29875;
637945425146044482;126.1921;12;1;4;0.1;1.4;1916;2.08768267223382;-0.2394138;0.8422151;-0.2256888;0.8227384;0;2.2;-0.006045728;2.156137;
637945425183883494;129.9769;12;1;4;0.1;1.4;3771;1.06072659771944;0.4499513;2.036231;0.4440283;2.027629;-0.2394138;0.8422151;-0.2256888;0.8227384;
637945425210863456;132.6763;12;1;4;0.1;1.4;2696;1.48367952522255;-0.6062176;1.15;-0.5838444;1.184101;0.4499513;2.036231;0.4440283;2.027629;
637945425232002617;134.7884;12;1;4;0.1;1.4;2112;1.89393939393939;0.6893654;1.621554;0.6404656;1.619085;-0.6062176;1.15;-0.5838444;1.184101;
637945425240849732;135.6745;12;1;4;0.1;1.4;886;4.51467268623025;-0.6893655;1.621553;-0.6723446;1.659887;0.6893654;1.621554;0.6404656;1.619085;
637945425249971328;136.5865;12;1;4;0.1;1.4;912;4.3859649122807;0.6062179;1.15;0.5751512;1.161594;-0.6893655;1.621553;-0.6723446;1.659887;
637945425263963773;137.9862;12;1;4;0.1;1.4;1400;2.85714285714286;-0.4499517;2.036231;-0.4170808;2.009251;0.6062179;1.15;0.5751512;1.161594;
637945425283052109;139.8948;12;1;4;0.1;1.4;1909;2.09533787323206;0.2394144;0.8422153;0.2177987;0.8871435;-0.4499517;2.036231;-0.4170808;2.009251;
637945425323034412;143.8931;12;1;2;0.6;1.8;898;2.2271714922049;-0.3078177;0.6542765;-0.2149389;0.8710823;0;2.4;0.02486264;2.1588;
637945425332936149;144.8831;12;1;2;0.6;1.8;990;2.02020202020202;0.5785087;2.18944;0.4886972;2.100758;-0.3078177;0.6542765;-0.2149389;0.8710823;
637945425342027733;145.7924;12;1;2;0.6;1.8;909;2.2002200220022;-0.7794226;1.05;-0.835871;1.228291;0.5785087;2.18944;0.4886972;2.100758;
637945425387897931;150.3781;12;1;2;0.6;1.8;4584;0.43630017452007;0.8863269;1.656283;0.8367109;1.655254;-0.7794226;1.05;-0.835871;1.228291;
637945425401115252;151.7008;12;1;2;0.6;1.8;1323;1.51171579743008;-0.8863271;1.656283;-0.7025718;1.640154;0.8863269;1.656283;0.8367109;1.655254;
637945425408876600;152.4771;12;1;2;0.6;1.8;776;2.57731958762887;0.779423;1.05;0.6007044;1.211473;-0.8863271;1.656283;-0.7025718;1.640154;
637945425435986339;155.1882;12;1;2;0.6;1.8;2711;0.737735153080044;-0.5785094;2.18944;-0.4280193;2.100272;0.779423;1.05;0.6007044;1.211473;
637945425471966449;158.7865;12;1;2;0.6;1.8;3598;0.555864369093941;0.3078185;0.6542768;0.3312479;0.9203938;-0.5785094;2.18944;-0.4280193;2.100272;
637945425519964842;163.5842;12;1;3.5;0.2;2;1402;2.49643366619116;-0.3420197;0.5603072;-0.3042661;0.6489068;0;2.5;0.04015527;2.523093;
637945425536947813;165.284;12;1;3.5;0.2;2;1700;2.05882352941176;0.6427875;2.266045;0.7129867;2.230069;-0.3420197;0.5603072;-0.3042661;0.6489068;
637945425554140819;167.0039;12;1;3.5;0.2;2;1716;2.03962703962704;-0.8660251;0.9999995;-0.797624;1.067421;0.6427875;2.266045;0.7129867;2.230069;
637945425573021131;168.8916;12;1;3.5;0.2;2;1874;1.86766275346852;0.9848077;1.673648;0.9124263;1.736259;-0.8660251;0.9999995;-0.797624;1.067421;
637945425585013227;170.0911;12;1;3.5;0.2;2;1199;2.91909924937448;-0.9848078;1.673648;-0.9159946;1.655141;0.9848077;1.673648;0.9124263;1.736259;
637945425655216582;177.1097;12;1;3.5;0.2;2;7014;0.499001996007984;0.8660256;1;0.8740393;1.07482;-0.9848078;1.673648;-0.9159946;1.655141;
637945425668353886;178.4333;12;1;3.5;0.2;2;1324;2.64350453172205;-0.6427882;2.266044;-0.5827832;2.187796;0.8660256;1;0.8740393;1.07482;
637945425679645855;179.5655;12;1;3.5;0.2;2;1132;3.09187279151943;0.3420205;0.5603075;0.361551;0.6583233;-0.6427882;2.266044;-0.5827832;2.187796;
637945425699074694;181.4975;12;1;1.5;1.1;2;1106;1.35623869801085;-0.3420197;0.5603072;-0.301641;1.028748;0;2.5;0.1194383;2.172883;
637945425711176808;182.7073;12;1;1.5;1.1;2;1210;1.2396694214876;0.6427875;2.266045;0.4999402;1.820915;-0.3420197;0.5603072;-0.301641;1.028748;
637945425722014818;183.7915;12;1;1.5;1.1;2;1062;1.41242937853107;-0.8660251;0.9999995;-0.7108678;1.465963;0.6427875;2.266045;0.4999402;1.820915;
637945425748379424;186.4277;12;1;1.5;1.1;2;2635;0.569259962049336;0.9848077;1.673648;0.5978063;1.678781;-0.8660251;0.9999995;-0.7108678;1.465963;
637945425763297033;187.9176;12;1;1.5;1.1;2;1490;1.00671140939597;-0.9848078;1.673648;-0.6041856;1.664103;0.9848077;1.673648;0.5978063;1.678781;
637945425774169526;189.006;12;1;1.5;1.1;2;1088;1.37867647058824;0.8660256;1;0.5029556;1.403799;-0.9848078;1.673648;-0.6041856;1.664103;
637945425783281119;189.916;12;1;1.5;1.1;2;910;1.64835164835165;-0.6427882;2.266044;-0.4704249;1.962971;0.8660256;1;0.5029556;1.403799;
637945425794153215;191.0045;12;1;1.5;1.1;2;1089;1.37741046831956;0.3420205;0.5603075;0.2408788;1.009172;-0.6427882;2.266044;-0.4704249;1.962971;
637945425818147408;193.4042;12;1;2.5;0.3;1.4;1402;1.78316690442225;-0.2394138;0.8422151;-0.2338892;0.9772222;0;2.2;0.0365259;2.09441;
637945425833115488;194.9012;12;1;2.5;0.3;1.4;1497;1.67000668002672;0.4499513;2.036231;0.3675978;2.047672;-0.2394138;0.8422151;-0.2338892;0.9772222;
637945425844137413;196.0026;12;1;2.5;0.3;1.4;1101;2.27066303360581;-0.6062176;1.15;-0.5739984;1.107139;0.4499513;2.036231;0.3675978;2.047672;
637945425856330169;197.2223;12;1;2.5;0.3;1.4;1220;2.04918032786885;0.6893654;1.621554;0.6819643;1.640033;-0.6062176;1.15;-0.5739984;1.107139;
637945425866209088;198.2103;12;1;2.5;0.3;1.4;988;2.53036437246964;-0.6893655;1.621553;-0.5841608;1.641828;0.6893654;1.621554;0.6819643;1.640033;
637945425876175830;199.2065;12;1;2.5;0.3;1.4;996;2.51004016064257;0.6062179;1.15;0.515625;1.180603;-0.6893655;1.621553;-0.5841608;1.641828;
637945425887202759;200.3095;12;1;2.5;0.3;1.4;1103;2.26654578422484;-0.4499517;2.036231;-0.4652617;2.099728;0.6062179;1.15;0.515625;1.180603;
637945425907191252;202.3085;12;1;2.5;0.3;1.4;1999;1.25062531265633;0.2394144;0.8422153;0.1832784;0.976267;-0.4499517;2.036231;-0.4652617;2.099728;
637945426599406773;271.5303;12;2;4.5;0.1;2.2;2881;1.5619576535925;-0.3762217;0.4663379;-0.3651572;0.5043073;0;2.6;-0.02215777;2.555178;
637945426624793466;274.08;12;2;4.5;0.1;2.2;2550;1.76470588235294;0.7070663;2.342649;0.6642054;2.317695;-0.3762217;0.4663379;-0.3651572;0.5043073;
637945426653809329;276.9818;12;2;4.5;0.1;2.2;2899;1.55225939979303;-0.9526277;0.9499994;-0.9036294;0.9405674;0.7070663;2.342649;0.6642054;2.317695;
637945426668579051;278.4446;12;2;4.5;0.1;2.2;1463;3.07587149692413;1.083289;1.691013;1.053712;1.681916;-0.9526277;0.9499994;-0.9036294;0.9405674;
637945426690362864;280.6258;12;2;4.5;0.1;2.2;2181;2.06327372764787;-1.083289;1.691012;-1.042035;1.713187;1.083289;1.691013;1.053712;1.681916;
637945426736475926;285.2371;12;2;4.5;0.1;2.2;4611;0.975927130774236;0.9526281;0.9500003;0.9538516;0.9745622;-1.083289;1.691012;-1.042035;1.713187;
637945426751450216;286.7346;12;2;4.5;0.1;2.2;1488;3.0241935483871;-0.7070671;2.342648;-0.7122202;2.331532;0.9526281;0.9500003;0.9538516;0.9745622;
637945426769098303;288.5104;12;2;4.5;0.1;2.2;1776;2.53378378378378;0.3762226;0.4663382;0.3401037;0.4638039;-0.7070671;2.342648;-0.7122202;2.331532;
637945426796900281;291.2906;12;2;3;0.2;1.4;1556;1.9280205655527;-0.2394138;0.8422151;-0.2008245;0.9218142;0;2.2;-0.01549033;2.143881;
637945426811522837;292.7416;12;2;3;0.2;1.4;1451;2.06753962784287;0.4499513;2.036231;0.3707945;2.068754;-0.2394138;0.8422151;-0.2008245;0.9218142;
637945426823519934;293.9412;12;2;3;0.2;1.4;1199;2.50208507089241;-0.6062176;1.15;-0.5692975;1.166801;0.4499513;2.036231;0.3707945;2.068754;
637945426834511854;295.0409;12;2;3;0.2;1.4;1100;2.72727272727273;0.6893654;1.621554;0.673749;1.685526;-0.6062176;1.15;-0.5692975;1.166801;
637945426843995375;296.0001;12;2;3;0.2;1.4;959;3.12825860271116;-0.6893655;1.621553;-0.622033;1.693771;0.6893654;1.621554;0.673749;1.685526;
637945426853957114;296.9966;12;2;3;0.2;1.4;996;3.01204819277108;0.6062179;1.15;0.5627602;1.231739;-0.6893655;1.621553;-0.622033;1.693771;
637945426871476860;298.7351;12;2;3;0.2;1.4;1739;1.72512938470385;-0.4499517;2.036231;-0.4215336;2.010338;0.6062179;1.15;0.5627602;1.231739;
637945426885714349;300.161;12;2;3;0.2;1.4;1426;2.10378681626928;0.2394144;0.8422153;0.1865689;0.885594;-0.4499517;2.036231;-0.4215336;2.010338;
637945426918472499;303.4368;12;2;3.5;0.2;2;1699;2.06003531489111;-0.3420197;0.5603072;-0.3489888;0.5637034;0;2.5;0.01116032;2.502286;
637945426936810704;305.2815;12;2;3.5;0.2;2;678;5.1622418879056;0.6427875;2.266045;0.6992732;2.19045;-0.3420197;0.5603072;-0.3489888;0.5637034;
637945426962140133;307.8143;12;2;3.5;0.2;2;2533;1.38176075799447;-0.8660251;0.9999995;-0.802941;1.076317;0.6427875;2.266045;0.6992732;2.19045;
637945426981558970;309.7448;12;2;3.5;0.2;2;1871;1.87065740245858;0.9848077;1.673648;0.9141113;1.710649;-0.8660251;0.9999995;-0.802941;1.076317;
637945426994511236;311.04;12;2;3.5;0.2;2;1295;2.7027027027027;-0.9848078;1.673648;-0.9185894;1.641046;0.9848077;1.673648;0.9141113;1.710649;
637945427021531337;313.7425;12;2;3.5;0.2;2;2693;1.2996658002228;0.8660256;1;0.8443505;1.066479;-0.9848078;1.673648;-0.9185894;1.641046;
637945427036533954;315.2417;12;2;3.5;0.2;2;1499;2.33488992661775;-0.6427882;2.266044;-0.6983762;2.289298;0.8660256;1;0.8443505;1.066479;
637945427050521404;316.6414;12;2;3.5;0.2;2;1400;2.5;0.3420205;0.5603075;0.3360103;0.568916;-0.6427882;2.266044;-0.6983762;2.289298;
637945427101915630;321.7813;12;2;2.5;0.3;1.4;1239;2.01775625504439;-0.2394138;0.8422151;-0.1794231;0.8587512;0;2.2;0.07885625;2.195474;
637945427115713044;323.1609;12;2;2.5;0.3;1.4;1379;1.81290790427846;0.4499513;2.036231;0.3891753;1.998618;-0.2394138;0.8422151;-0.1794231;0.8587512;
637945427131700837;324.7599;12;2;2.5;0.3;1.4;1599;1.56347717323327;-0.6062176;1.15;-0.5537857;1.177184;0.4499513;2.036231;0.3891753;1.998618;
637945427140597393;325.6495;12;2;2.5;0.3;1.4;890;2.80898876404494;0.6893654;1.621554;0.7808033;1.551688;-0.6062176;1.15;-0.5537857;1.177184;
637945427148593794;326.4487;12;2;2.5;0.3;1.4;799;3.12891113892365;-0.6893655;1.621553;-0.7941134;1.677589;0.6893654;1.621554;0.7808033;1.551688;
637945427157595366;327.3494;12;2;2.5;0.3;1.4;901;2.77469478357381;0.6062179;1.15;0.4767864;1.11478;-0.6893655;1.621553;-0.7941134;1.677589;
637945427168524204;328.4408;12;2;2.5;0.3;1.4;1091;2.29147571035747;-0.4499517;2.036231;-0.4875776;1.976233;0.6062179;1.15;0.4767864;1.11478;
637945427183677116;329.9572;12;2;2.5;0.3;1.4;1516;1.6490765171504;0.2394144;0.8422153;0.2006999;0.9247569;-0.4499517;2.036231;-0.4875776;1.976233;
637945427207771713;332.3668;12;2;2;0.6;1.8;1219;1.64068908941756;-0.3078177;0.6542765;-0.2474157;0.8074633;0;2.4;0.1111733;2.137591;
637945427217543418;333.3438;12;2;2;0.6;1.8;977;2.04708290685773;0.5785087;2.18944;0.4804533;1.927939;-0.3078177;0.6542765;-0.2474157;0.8074633;
637945427229540517;334.5434;12;2;2;0.6;1.8;1200;1.66666666666667;-0.7794226;1.05;-0.544073;1.12306;0.5785087;2.18944;0.4804533;1.927939;
637945427252691209;336.8543;12;2;2;0.6;1.8;2311;0.865426222414539;0.8863269;1.656283;0.9400188;1.685366;-0.7794226;1.05;-0.544073;1.12306;
637945427268638995;338.4535;12;2;2;0.6;1.8;1599;1.25078173858662;-0.8863271;1.656283;-0.6408847;1.675274;0.8863269;1.656283;0.9400188;1.685366;
637945427277745586;339.364;12;2;2;0.6;1.8;910;2.1978021978022;0.779423;1.05;0.7991773;1.145774;-0.8863271;1.656283;-0.6408847;1.675274;
637945427299629413;341.5526;12;2;2;0.6;1.8;2189;0.913659205116492;-0.5785094;2.18944;-0.343662;2.102779;0.779423;1.05;0.7991773;1.145774;
637945427332747042;344.8628;12;2;2;0.6;1.8;3310;0.604229607250755;0.3078185;0.6542768;0.3097319;0.8105949;-0.5785094;2.18944;-0.343662;2.102779;
637945427358699025;347.4596;12;2;1.5;1.1;2;1599;0.938086303939963;-0.3420197;0.5603072;-0.2817591;0.8937058;0;2.5;0.06734187;2.142186;
637945427369695946;348.5591;12;2;1.5;1.1;2;1067;1.4058106841612;0.6427875;2.266045;0.3725286;1.991539;-0.3420197;0.5603072;-0.2817591;0.8937058;
637945427381938379;349.7816;12;2;1.5;1.1;2;1222;1.22749590834697;-0.8660251;0.9999995;-0.6260592;1.263223;0.6427875;2.266045;0.3725286;1.991539;
637945427390719914;350.6617;12;2;1.5;1.1;2;871;1.72215843857635;0.9848077;1.673648;0.6365957;1.647301;-0.8660251;0.9999995;-0.6260592;1.263223;
637945427415784297;353.1678;12;2;1.5;1.1;2;2506;0.598563447725459;-0.9848078;1.673648;-0.5325653;1.780716;0.9848077;1.673648;0.6365957;1.647301;
637945427423775692;353.9674;12;2;1.5;1.1;2;800;1.875;0.8660256;1;0.6737619;1.359326;-0.9848078;1.673648;-0.5325653;1.780716;
637945427442799021;355.869;12;2;1.5;1.1;2;1902;0.788643533123028;-0.6427882;2.266044;-0.4730719;2.068897;0.8660256;1;0.6737619;1.359326;
637945427455766287;357.1662;12;2;1.5;1.1;2;1297;1.15651503469545;0.3420205;0.5603075;0.2244843;0.8960263;-0.6427882;2.266044;-0.4730719;2.068897;
637945427534837124;365.0732;12;2;4;0.1;1.4;1886;2.12089077412513;-0.2394138;0.8422151;-0.2209989;0.8802297;0;2.2;-0.03083341;2.173545;
637945427563937638;367.9835;12;2;4;0.1;1.4;2893;1.38264777048047;0.4499513;2.036231;0.4391905;1.993865;-0.2394138;0.8422151;-0.2209989;0.8802297;
637945427591942880;370.7819;12;2;4;0.1;1.4;2798;1.42959256611866;-0.6062176;1.15;-0.5741575;1.15191;0.4499513;2.036231;0.4391905;1.993865;
637945427657997220;377.3894;12;2;4;0.1;1.4;6601;0.605968792607181;0.6893654;1.621554;0.6637446;1.6374;-0.6062176;1.15;-0.5741575;1.15191;
637945427682866568;379.8763;12;2;4;0.1;1.4;2487;1.60836349014877;-0.6893655;1.621553;-0.6834816;1.602899;0.6893654;1.621554;0.6637446;1.6374;
637945427708876116;382.4771;12;2;4;0.1;1.4;2601;1.53787004998078;0.6062179;1.15;0.6057131;1.199876;-0.6893655;1.621553;-0.6834816;1.602899;
637945427724073772;383.997;12;2;4;0.1;1.4;1520;2.63157894736842;-0.4499517;2.036231;-0.42971;2.040298;0.6062179;1.15;0.6057131;1.199876;
637945427756089587;387.1974;12;2;4;0.1;1.4;3193;1.25274036955841;0.2394144;0.8422153;0.2463951;0.8874927;-0.4499517;2.036231;-0.42971;2.040298;
637945428422180083;453.8072;12;3;2.5;0.3;1.4;1577;1.5852885225111;-0.2394138;0.8422151;-0.1210708;0.8852102;0;2.2;-0.08027159;2.169676;
637945428447399489;456.3264;12;3;2.5;0.3;1.4;2448;1.02124183006536;0.4499513;2.036231;0.4073457;1.945661;-0.2394138;0.8422151;-0.1210708;0.8852102;
637945428466152768;458.205;12;3;2.5;0.3;1.4;1879;1.33049494411921;-0.6062176;1.15;-0.476723;1.202842;0.4499513;2.036231;0.4073457;1.945661;
637945428481165394;459.7058;12;3;2.5;0.3;1.4;1501;1.6655562958028;0.6893654;1.621554;0.5643725;1.701927;-0.6062176;1.15;-0.476723;1.202842;
637945428516132063;463.2027;12;3;2.5;0.3;1.4;3494;0.715512306811677;-0.6893655;1.621553;-0.6059884;1.633568;0.6893654;1.621554;0.5643725;1.701927;
637945428528159171;464.4055;12;3;2.5;0.3;1.4;1203;2.07813798836243;0.6062179;1.15;0.5289593;1.105162;-0.6893655;1.621553;-0.6059884;1.633568;
637945428548147669;466.4044;12;3;2.5;0.3;1.4;1999;1.25062531265633;-0.4499517;2.036231;-0.4361185;1.991508;0.6062179;1.15;0.5289593;1.105162;
637945428580208470;469.6103;12;3;2.5;0.3;1.4;3205;0.78003120124805;0.2394144;0.8422153;0.2360699;0.9551681;-0.4499517;2.036231;-0.4361185;1.991508;
637945428607313213;472.3207;12;3;3;0.2;1.4;1510;1.98675496688742;-0.2394138;0.8422151;-0.1785035;0.884712;0;2.2;0.01832383;2.179638;
637945428629332058;474.5211;12;3;3;0.2;1.4;2200;1.36363636363636;0.4499513;2.036231;0.4371527;1.961551;-0.2394138;0.8422151;-0.1785035;0.884712;
637945428658394224;477.4291;12;3;3;0.2;1.4;2908;1.03163686382393;-0.6062176;1.15;-0.5150664;1.165436;0.4499513;2.036231;0.4371527;1.961551;
637945428675312185;479.1187;12;3;3;0.2;1.4;1690;1.77514792899408;0.6893654;1.621554;0.5972554;1.659244;-0.6062176;1.15;-0.5150664;1.165436;
637945428691314974;480.7183;12;3;3;0.2;1.4;1600;1.875;-0.6893655;1.621553;-0.6126686;1.642378;0.6893654;1.621554;0.5972554;1.659244;
637945428716265450;483.2162;12;3;3;0.2;1.4;2498;1.20096076861489;0.6062179;1.15;0.5632601;1.178392;-0.6893655;1.621553;-0.6126686;1.642378;
637945428726287201;484.2182;12;3;3;0.2;1.4;1002;2.9940119760479;-0.4499517;2.036231;-0.4130817;1.971844;0.6062179;1.15;0.5632601;1.178392;
637945428740359660;485.6255;12;3;3;0.2;1.4;1407;2.13219616204691;0.2394144;0.8422153;0.2500739;0.9023168;-0.4499517;2.036231;-0.4130817;1.971844;
637945428822318065;493.8213;12;3;3.5;0.2;2;4089;0.855955001222793;-0.3420197;0.5603072;-0.3301314;0.611671;0;2.5;0.0423842;2.474256;
637945428854363668;497.0259;12;3;3.5;0.2;2;3179;1.10097514941806;0.6427875;2.266045;0.6293774;2.212138;-0.3420197;0.5603072;-0.3301314;0.611671;
637945428887324427;500.3203;12;3;3.5;0.2;2;3289;1.06415323806628;-0.8660251;0.9999995;-0.7670848;0.9897972;0.6427875;2.266045;0.6293774;2.212138;
637945428902387061;501.8282;12;3;3.5;0.2;2;1508;2.3209549071618;0.9848077;1.673648;0.8894122;1.658272;-0.8660251;0.9999995;-0.7670848;0.9897972;
637945428935373258;505.1269;12;3;3.5;0.2;2;3299;1.06092755380418;-0.9848078;1.673648;-0.9919075;1.745542;0.9848077;1.673648;0.8894122;1.658272;
637945428971509156;508.7403;12;3;3.5;0.2;2;3597;0.973033083124826;0.8660256;1;0.8295669;1.049004;-0.9848078;1.673648;-0.9919075;1.745542;
637945429010335941;512.6228;12;3;3.5;0.2;2;3819;0.916470280178057;-0.6427882;2.266044;-0.5537168;2.293429;0.8660256;1;0.8295669;1.049004;
637945429032330328;514.8228;12;3;3.5;0.2;2;2199;1.59163256025466;0.3420205;0.5603075;0.3377258;0.585565;-0.6427882;2.266044;-0.5537168;2.293429;
637945429081436274;519.7325;12;3;1.5;1.1;2;1792;0.837053571428571;-0.3420197;0.5603072;-0.1800853;0.8993951;0;2.5;0.001411803;2.36854;
637945429101429769;521.7316;12;3;1.5;1.1;2;1999;0.750375187593797;0.6427875;2.266045;0.4149577;2.07435;-0.3420197;0.5603072;-0.1800853;0.8993951;
637945429119004310;523.4866;12;3;1.5;1.1;2;1755;0.854700854700855;-0.8660251;0.9999995;-0.6911313;1.227315;0.6427875;2.266045;0.4149577;2.07435;
637945429127445792;524.3329;12;3;1.5;1.1;2;842;1.78147268408551;0.9848077;1.673648;0.5212503;1.517538;-0.8660251;0.9999995;-0.6911313;1.227315;
637945429137417732;525.3299;12;3;1.5;1.1;2;997;1.50451354062187;-0.9848078;1.673648;-0.6014082;1.574137;0.9848077;1.673648;0.5212503;1.517538;
637945429161612129;527.7486;12;3;1.5;1.1;2;2419;0.620090946672179;0.8660256;1;0.7101273;1.169205;-0.9848078;1.673648;-0.6014082;1.574137;
637945429176410131;529.2307;12;3;1.5;1.1;2;1479;1.01419878296146;-0.6427882;2.266044;-0.3385458;2.157992;0.8660256;1;0.7101273;1.169205;
637945429190407580;530.6308;12;3;1.5;1.1;2;1400;1.07142857142857;0.3420205;0.5603075;0.2763395;1.046214;-0.6427882;2.266044;-0.3385458;2.157992;
637945429276423852;539.232;12;3;4.5;0.1;2.2;2274;1.97889182058048;-0.3762217;0.4663379;-0.3799091;0.4594164;0;2.6;0.004715013;2.585966;
637945429294169303;541.017;12;3;4.5;0.1;2.2;1783;2.52383623107123;0.7070663;2.342649;0.680427;2.306028;-0.3762217;0.4663379;-0.3799091;0.4594164;
637945429313957763;542.9968;12;3;4.5;0.1;2.2;1980;2.27272727272727;-0.9526277;0.9499994;-0.9083833;0.9732566;0.7070663;2.342649;0.680427;2.306028;
637945429350624174;546.6521;12;3;4.5;0.1;2.2;3655;1.2311901504788;1.083289;1.691013;1.04246;1.683954;-0.9526277;0.9499994;-0.9083833;0.9732566;
637945429367502124;548.3398;12;3;4.5;0.1;2.2;1688;2.66587677725119;-1.083289;1.691012;-1.048949;1.678953;1.083289;1.691013;1.04246;1.683954;
637945429389481953;550.5374;12;3;4.5;0.1;2.2;2198;2.04731574158326;0.9526281;0.9500003;0.9150957;0.9784898;-1.083289;1.691012;-1.048949;1.678953;
637945429417491849;553.338;12;3;4.5;0.1;2.2;2766;1.62689804772234;-0.7070671;2.342648;-0.6878938;2.311912;0.9526281;0.9500003;0.9150957;0.9784898;
637945429440456049;555.6353;12;3;4.5;0.1;2.2;2297;1.95907705703091;0.3762226;0.4663382;0.398443;0.4832523;-0.7070671;2.342648;-0.6878938;2.311912;
637945429462564916;557.8449;12;3;2;0.6;1.8;811;2.46609124537608;-0.3078177;0.6542765;-0.2399962;0.9067787;0;2.4;0.07299254;2.215512;
637945429480548059;559.6441;12;3;2;0.6;1.8;1799;1.11172873818788;0.5785087;2.18944;0.5052683;2.165137;-0.3078177;0.6542765;-0.2399962;0.9067787;
637945429492545157;560.8439;12;3;2;0.6;1.8;1200;1.66666666666667;-0.7794226;1.05;-0.6574773;1.186477;0.5785087;2.18944;0.5052683;2.165137;
637945429505757625;562.1656;12;3;2;0.6;1.8;1322;1.51285930408472;0.8863269;1.656283;0.6915436;1.710299;-0.7794226;1.05;-0.6574773;1.186477;
637945429523535732;563.9426;12;3;2;0.6;1.8;1777;1.12549240292628;-0.8863271;1.656283;-0.6595085;1.703968;0.8863269;1.656283;0.6915436;1.710299;
637945429540468700;565.6365;12;3;2;0.6;1.8;1694;1.18063754427391;0.779423;1.05;0.6249049;1.170081;-0.8863271;1.656283;-0.6595085;1.703968;
637945429559517024;567.541;12;3;2;0.6;1.8;1904;1.05042016806723;-0.5785094;2.18944;-0.4844209;2.341544;0.779423;1.05;0.6249049;1.170081;
637945429574629667;569.0526;12;3;2;0.6;1.8;1512;1.32275132275132;0.3078185;0.6542768;0.2578685;0.8870006;-0.5785094;2.18944;-0.4844209;2.341544;
637945429628474080;574.4368;12;3;4;0.1;1.4;1884;2.12314225053079;-0.2394138;0.8422151;-0.2291341;0.8742542;0;2.2;-0.01855414;2.189638;
637945429653484262;576.938;12;3;4;0.1;1.4;2501;1.59936025589764;0.4499513;2.036231;0.4250249;2.016131;-0.2394138;0.8422151;-0.2291341;0.8742542;
637945429678678667;579.4571;12;3;4;0.1;1.4;2508;1.59489633173844;-0.6062176;1.15;-0.5780816;1.159778;0.4499513;2.036231;0.4250249;2.016131;
637945429699552316;581.5443;12;3;4;0.1;1.4;2087;1.91662673694298;0.6893654;1.621554;0.6825529;1.607218;-0.6062176;1.15;-0.5780816;1.159778;
637945429724681710;584.0566;12;3;4;0.1;1.4;2490;1.60642570281125;-0.6893655;1.621553;-0.7051818;1.667552;0.6893654;1.621554;0.6825529;1.607218;
637945429741645495;585.754;12;3;4;0.1;1.4;1697;2.35710076605775;0.6062179;1.15;0.5784238;1.191565;-0.6893655;1.621553;-0.7051818;1.667552;
637945429779507270;589.5402;12;3;4;0.1;1.4;3786;1.05652403592182;-0.4499517;2.036231;-0.4509718;2.016725;0.6062179;1.15;0.5784238;1.191565;
637945429809508624;592.5403;12;3;4;0.1;1.4;3000;1.33333333333333;0.2394144;0.8422153;0.2518499;0.858313;-0.4499517;2.036231;-0.4509718;2.016725;
637945431298130564;741.4014;12;4;2;0.6;1.8;1391;1.43781452192667;-0.3078177;0.6542765;-0.222103;0.9028741;0;2.4;-0.009483593;2.365953;
637945431310207676;742.6102;12;4;2;0.6;1.8;1209;1.65425971877585;0.5785087;2.18944;0.4868561;2.098114;-0.3078177;0.6542765;-0.222103;0.9028741;
637945431322189970;743.8087;12;4;2;0.6;1.8;1198;1.66944908180301;-0.7794226;1.05;-0.7436694;1.103544;0.5785087;2.18944;0.4868561;2.098114;
637945431332206720;744.8097;12;4;2;0.6;1.8;986;2.02839756592292;0.8863269;1.656283;0.7203336;1.573234;-0.7794226;1.05;-0.7436694;1.103544;
637945431342183464;745.808;12;4;2;0.6;1.8;998;2.00400801603206;-0.8863271;1.656283;-0.7115927;1.685725;0.8863269;1.656283;0.7203336;1.573234;
637945431354175557;747.0074;12;4;2;0.6;1.8;1199;1.66805671392827;0.779423;1.05;0.5401881;1.125726;-0.8863271;1.656283;-0.7115927;1.685725;
637945431364197314;748.0087;12;4;2;0.6;1.8;1001;1.998001998002;-0.5785094;2.18944;-0.34258;2.150657;0.779423;1.05;0.5401881;1.125726;
637945431401194114;751.7087;12;4;2;0.6;1.8;3700;0.540540540540541;0.3078185;0.6542768;0.2750033;0.8537396;-0.5785094;2.18944;-0.34258;2.150657;
637945431419279744;753.5168;12;4;1.5;1.1;2;904;1.65929203539823;-0.3420197;0.5603072;-0.1994022;0.9333217;0;2.5;0.04791323;2.092491;
637945431431136823;754.7036;12;4;1.5;1.1;2;1187;1.2636899747262;0.6427875;2.266045;0.2674321;2.070662;-0.3420197;0.5603072;-0.1994022;0.9333217;
637945431440263418;755.6155;12;4;1.5;1.1;2;912;1.64473684210526;-0.8660251;0.9999995;-0.6655715;1.308924;0.6427875;2.266045;0.2674321;2.070662;
637945431449134967;756.5029;12;4;1.5;1.1;2;887;1.69109357384442;0.9848077;1.673648;0.6821763;1.476195;-0.8660251;0.9999995;-0.6655715;1.308924;
637945431472239376;758.8132;12;4;1.5;1.1;2;2294;0.653879686137751;-0.9848078;1.673648;-0.8200712;1.740192;0.9848077;1.673648;0.6821763;1.476195;
637945431484236471;760.0129;12;4;1.5;1.1;2;1200;1.25;0.8660256;1;0.6093813;1.25245;-0.9848078;1.673648;-0.8200712;1.740192;
637945431496200771;761.2064;12;4;1.5;1.1;2;1193;1.25733445096396;-0.6427882;2.266044;-0.3243861;2.028858;0.8660256;1;0.6093813;1.25245;
637945431506344176;762.2239;12;4;1.5;1.1;2;1006;1.49105367793241;0.3420205;0.5603075;0.2705462;1.0171;-0.6427882;2.266044;-0.3243861;2.028858;
637945431535426317;765.1321;12;4;3.5;0.2;2;1707;2.05038078500293;-0.3420197;0.5603072;-0.3380196;0.6407791;0;2.5;0.03987301;2.41438;
637945431571244712;768.7138;12;4;3.5;0.2;2;3582;0.977107761027359;0.6427875;2.266045;0.6057531;2.236417;-0.3420197;0.5603072;-0.3380196;0.6407791;
637945431587337527;770.3212;12;4;3.5;0.2;2;1607;2.17797137523335;-0.8660251;0.9999995;-0.8538573;1.093781;0.6427875;2.266045;0.6057531;2.236417;
637945431603330318;771.9206;12;4;3.5;0.2;2;1599;2.18886804252658;0.9848077;1.673648;0.9780448;1.636438;-0.8660251;0.9999995;-0.8538573;1.093781;
637945431625200769;774.1095;12;4;3.5;0.2;2;2189;1.59890360895386;-0.9848078;1.673648;-0.9745991;1.669781;0.9848077;1.673648;0.9780448;1.636438;
637945431647300248;776.3166;12;4;3.5;0.2;2;2207;1.58586316266425;0.8660256;1;0.8370544;1.057476;-0.9848078;1.673648;-0.9745991;1.669781;
637945431667258903;778.3154;12;4;3.5;0.2;2;1999;1.75087543771886;-0.6427882;2.266044;-0.6070737;2.239167;0.8660256;1;0.8370544;1.057476;
637945431687352416;780.3248;12;4;3.5;0.2;2;2009;1.74216027874564;0.3420205;0.5603075;0.290872;0.5737511;-0.6427882;2.266044;-0.6070737;2.239167;
637945431720225040;783.6117;12;4;4;0.1;1.4;1696;2.35849056603774;-0.2394138;0.8422151;-0.2171648;0.8508265;0;2.2;-0.02810728;2.189929;
637945431750210478;786.6107;12;4;4;0.1;1.4;2999;1.33377792597533;0.4499513;2.036231;0.4202093;2.024133;-0.2394138;0.8422151;-0.2171648;0.8508265;
637945431776535074;789.242;12;4;4;0.1;1.4;2631;1.52033447358419;-0.6062176;1.15;-0.5877662;1.15681;0.4499513;2.036231;0.4202093;2.024133;
637945431793408030;790.9305;12;4;4;0.1;1.4;1689;2.36826524570752;0.6893654;1.621554;0.6420974;1.63428;-0.6062176;1.15;-0.5877662;1.15681;
637945431805400128;792.1298;12;4;4;0.1;1.4;1199;3.33611342785655;-0.6893655;1.621553;-0.6644872;1.633869;0.6893654;1.621554;0.6420974;1.63428;
637945431829516108;794.5412;12;4;4;0.1;1.4;2353;1.69995750106247;0.6062179;1.15;0.6112595;1.195347;-0.6893655;1.621553;-0.6644872;1.633869;
637945431849307048;796.5179;12;4;4;0.1;1.4;1977;2.02326757713708;-0.4499517;2.036231;-0.4734234;2.078143;0.6062179;1.15;0.6112595;1.195347;
637945431868375381;798.4269;12;4;4;0.1;1.4;1909;2.09533787323206;0.2394144;0.8422153;0.2410233;0.8852538;-0.4499517;2.036231;-0.4734234;2.078143;
637945431901253192;801.7151;12;4;3;0.2;1.4;1289;2.32738557020946;-0.2394138;0.8422151;-0.1965237;0.8238547;0;2.2;-0.04962858;2.166051;
637945431920266518;803.6163;12;4;3;0.2;1.4;1901;1.57811678064177;0.4499513;2.036231;0.4213549;1.94362;-0.2394138;0.8422151;-0.1965237;0.8238547;
637945431938339676;805.4236;12;4;3;0.2;1.4;1807;1.66021029330382;-0.6062176;1.15;-0.5468267;1.144167;0.4499513;2.036231;0.4213549;1.94362;
637945431951472203;806.7362;12;4;3;0.2;1.4;1313;2.28484386900229;0.6893654;1.621554;0.7292953;1.649918;-0.6062176;1.15;-0.5468267;1.144167;
637945431962630833;807.8503;12;4;3;0.2;1.4;1108;2.70758122743682;-0.6893655;1.621553;-0.6723327;1.614386;0.6893654;1.621554;0.7292953;1.649918;
637945431994419227;811.0316;12;4;3;0.2;1.4;3181;0.943099654196794;0.6062179;1.15;0.5832371;1.208329;-0.6893655;1.621553;-0.6723327;1.614386;
637945432006416325;812.2313;12;4;3;0.2;1.4;1200;2.5;-0.4499517;2.036231;-0.3837398;1.968097;0.6062179;1.15;0.5832371;1.208329;
637945432016293056;813.2189;12;4;3;0.2;1.4;988;3.03643724696356;0.2394144;0.8422153;0.3311336;0.8647338;-0.4499517;2.036231;-0.3837398;1.968097;
637945432053335909;816.92;12;4;4.5;0.1;2.2;2048;2.197265625;-0.3762217;0.4663379;-0.3600553;0.4933702;0;2.6;-0.03019571;2.560935;
637945432082380985;819.8277;12;4;4.5;0.1;2.2;2908;1.5474552957359;0.7070663;2.342649;0.6786419;2.339228;-0.3762217;0.4663379;-0.3600553;0.4933702;
637945432098371147;821.4269;12;4;4.5;0.1;2.2;1599;2.81425891181989;-0.9526277;0.9499994;-0.9410498;0.9358035;0.7070663;2.342649;0.6786419;2.339228;
637945432113914493;822.9919;12;4;4.5;0.1;2.2;1565;2.87539936102236;1.083289;1.691013;1.10318;1.672212;-0.9526277;0.9499994;-0.9410498;0.9358035;
637945432136348423;825.2247;12;4;4.5;0.1;2.2;2233;2.01522615315719;-1.083289;1.691012;-1.040231;1.709654;1.083289;1.691013;1.10318;1.672212;
637945432175554881;829.1445;12;4;4.5;0.1;2.2;3892;1.15621788283659;0.9526281;0.9500003;0.9249819;0.9747425;-1.083289;1.691012;-1.040231;1.709654;
637945432219529310;833.5423;12;4;4.5;0.1;2.2;4392;1.02459016393443;-0.7070671;2.342648;-0.6803699;2.337576;0.9526281;0.9500003;0.9249819;0.9747425;
637945432245410797;836.1306;12;4;4.5;0.1;2.2;2588;1.73879443585781;0.3762226;0.4663382;0.3973193;0.4886959;-0.7070671;2.342648;-0.6803699;2.337576;
637945432270510185;838.6404;12;4;2.5;0.3;1.4;1105;2.26244343891403;-0.2394138;0.8422151;-0.2134627;0.969151;0;2.2;0.03244639;2.152474;
637945432287448147;840.3334;12;4;2.5;0.3;1.4;1693;1.47666863555818;0.4499513;2.036231;0.3953762;2.047049;-0.2394138;0.8422151;-0.2134627;0.969151;
637945432297390288;841.3284;12;4;2.5;0.3;1.4;995;2.51256281407035;-0.6062176;1.15;-0.6921326;1.242878;0.4499513;2.036231;0.3953762;2.047049;
637945432313378079;842.9278;12;4;2.5;0.3;1.4;1599;1.56347717323327;0.6893654;1.621554;0.5584244;1.643006;-0.6062176;1.15;-0.6921326;1.242878;
637945432325425947;844.1286;12;4;2.5;0.3;1.4;1199;2.08507089241034;-0.6893655;1.621553;-0.5969462;1.654866;0.6893654;1.621554;0.5584244;1.643006;
637945432352470676;846.8364;12;4;2.5;0.3;1.4;2708;0.923190546528804;0.6062179;1.15;0.6071551;1.244951;-0.6893655;1.621553;-0.5969462;1.654866;
637945432370461171;848.6354;12;4;2.5;0.3;1.4;1791;1.39586823003908;-0.4499517;2.036231;-0.5160542;2.053596;0.6062179;1.15;0.6071551;1.244951;
637945432386449203;850.2347;12;4;2.5;0.3;1.4;1599;1.56347717323327;0.2394144;0.8422153;0.2893398;0.9488988;-0.4499517;2.036231;-0.5160542;2.053596;
637945433125917409;924.1893;12;5;4;0.1;1.4;2134;1.87441424554827;-0.2394138;0.8422151;-0.192078;0.8570809;0;2.2;-0.001035161;2.189703;
637945433141590147;925.744;12;5;4;0.1;1.4;1555;2.57234726688103;0.4499513;2.036231;0.4108069;2.022281;-0.2394138;0.8422151;-0.192078;0.8570809;
637945433156697791;927.2545;12;5;4;0.1;1.4;1510;2.64900662251656;-0.6062176;1.15;-0.5997727;1.120451;0.4499513;2.036231;0.4108069;2.022281;
637945433179041695;929.5024;12;5;4;0.1;1.4;2248;1.77935943060498;0.6893654;1.621554;0.646879;1.604398;-0.6062176;1.15;-0.5997727;1.120451;
637945433207741715;932.361;12;5;4;0.1;1.4;2859;1.39909059111577;-0.6893655;1.621553;-0.6610228;1.628485;0.6893654;1.621554;0.646879;1.604398;
637945433230930765;934.6759;12;5;4;0.1;1.4;2315;1.72786177105832;0.6062179;1.15;0.5769078;1.173413;-0.6893655;1.621553;-0.6610228;1.628485;
637945433243622988;935.9492;12;5;4;0.1;1.4;1273;3.14218381775334;-0.4499517;2.036231;-0.4334079;2.028477;0.6062179;1.15;0.5769078;1.173413;
637945433263601478;937.947;12;5;4;0.1;1.4;1998;2.002002002002;0.2394144;0.8422153;0.2112101;0.8610344;-0.4499517;2.036231;-0.4334079;2.028477;
637945433296697266;941.2565;12;5;3.5;0.2;2;1311;2.6697177726926;-0.3420197;0.5603072;-0.3579191;0.6048021;0;2.5;-0.004036326;2.478261;
637945433315805608;943.1669;12;5;3.5;0.2;2;1910;1.83246073298429;0.6427875;2.266045;0.6180193;2.353441;-0.3420197;0.5603072;-0.3579191;0.6048021;
637945433345790851;946.1655;12;5;3.5;0.2;2;2999;1.16705568522841;-0.8660251;0.9999995;-0.8145776;0.9987041;0.6427875;2.266045;0.6180193;2.353441;
637945433364704157;948.0553;12;5;3.5;0.2;2;1890;1.85185185185185;0.9848077;1.673648;0.887435;1.696081;-0.8660251;0.9999995;-0.8145776;0.9987041;
637945433384697650;950.0549;12;5;3.5;0.2;2;2000;1.75;-0.9848078;1.673648;-0.9212396;1.715984;0.9848077;1.673648;0.887435;1.696081;
637945433406686493;952.2532;12;5;3.5;0.2;2;2198;1.59235668789809;0.8660256;1;0.8223187;1.058049;-0.9848078;1.673648;-0.9212396;1.715984;
637945433421749131;953.7616;12;5;3.5;0.2;2;1508;2.3209549071618;-0.6427882;2.266044;-0.6136526;2.248266;0.8660256;1;0.8223187;1.058049;
637945433439737278;955.5605;12;5;3.5;0.2;2;1799;1.94552529182879;0.3420205;0.5603075;0.3052742;0.6327752;-0.6427882;2.266044;-0.6136526;2.248266;
637945433464836662;958.0707;12;5;1.5;1.1;2;1311;1.1441647597254;-0.3420197;0.5603072;-0.2263374;0.8809125;0;2.5;0.1344494;2.164609;
637945433475633551;959.1503;12;5;1.5;1.1;2;1080;1.38888888888889;0.6427875;2.266045;0.4107189;2.001294;-0.3420197;0.5603072;-0.2263374;0.8809125;
637945433485715313;960.1583;12;5;1.5;1.1;2;1008;1.48809523809524;-0.8660251;0.9999995;-0.5907156;1.194056;0.6427875;2.266045;0.4107189;2.001294;
637945433492216449;960.8197;12;5;1.5;1.1;2;661;2.26928895612708;0.9848077;1.673648;0.4871693;1.482551;-0.8660251;0.9999995;-0.5907156;1.194056;
637945433503708458;961.9575;12;5;1.5;1.1;2;1138;1.31810193321617;-0.9848078;1.673648;-0.7605436;1.611507;0.9848077;1.673648;0.4871693;1.482551;
637945433514815400;963.0684;12;5;1.5;1.1;2;1111;1.35013501350135;0.8660256;1;0.4618288;1.294324;-0.9848078;1.673648;-0.7605436;1.611507;
637945433523696954;963.9566;12;5;1.5;1.1;2;888;1.68918918918919;-0.6427882;2.266044;-0.4901794;1.954377;0.8660256;1;0.4618288;1.294324;
637945433535694051;965.1559;12;5;1.5;1.1;2;1199;1.25104253544621;0.3420205;0.5603075;0.2856813;1.068485;-0.6427882;2.266044;-0.4901794;1.954377;
637945433565679293;968.1549;12;5;3;0.2;1.4;1888;1.58898305084746;-0.2394138;0.8422151;-0.2040776;0.9133502;0;2.2;0.006708609;2.236485;
637945433579711745;969.5582;12;5;3;0.2;1.4;1403;2.13827512473272;0.4499513;2.036231;0.4767089;1.972419;-0.2394138;0.8422151;-0.2040776;0.9133502;
637945433589673485;970.5536;12;5;3;0.2;1.4;995;3.01507537688442;-0.6062176;1.15;-0.6110965;1.151152;0.4499513;2.036231;0.4767089;1.972419;
637945433613882720;972.9745;12;5;3;0.2;1.4;2421;1.23915737298637;0.6893654;1.621554;0.7187846;1.626174;-0.6062176;1.15;-0.6110965;1.151152;
637945433625869816;974.1738;12;5;3;0.2;1.4;1199;2.50208507089241;-0.6893655;1.621553;-0.6282243;1.607845;0.6893654;1.621554;0.7187846;1.626174;
637945433656775221;977.2626;12;5;3;0.2;1.4;3089;0.971188086759469;0.6062179;1.15;0.5832914;1.219001;-0.6893655;1.621553;-0.6282243;1.607845;
637945433668767314;978.4626;12;5;3;0.2;1.4;1200;2.5;-0.4499517;2.036231;-0.46449;2.032287;0.6062179;1.15;0.5832914;1.219001;
637945433680759406;979.6616;12;5;3;0.2;1.4;1199;2.50208507089241;0.2394144;0.8422153;0.2274204;0.9414084;-0.4499517;2.036231;-0.46449;2.032287;
637945433702718251;981.8586;12;5;2.5;0.3;1.4;998;2.50501002004008;-0.2394138;0.8422151;-0.2337215;0.9188281;0;2.2;0.03372137;2.062053;
637945433715825543;983.1691;12;5;2.5;0.3;1.4;1310;1.90839694656489;0.4499513;2.036231;0.3702278;2.1305;-0.2394138;0.8422151;-0.2337215;0.9188281;
637945433725422220;984.1403;12;5;2.5;0.3;1.4;971;2.57466529351184;-0.6062176;1.15;-0.7251614;1.240254;0.4499513;2.036231;0.3702278;2.1305;
637945433734738848;985.059;12;5;2.5;0.3;1.4;919;2.72034820457019;0.6893654;1.621554;0.6080245;1.508616;-0.6062176;1.15;-0.7251614;1.240254;
637945433757804385;987.3669;12;5;2.5;0.3;1.4;2308;1.08318890814558;-0.6893655;1.621553;-0.6885975;1.638268;0.6893654;1.621554;0.6080245;1.508616;
637945433766930983;988.2791;12;5;2.5;0.3;1.4;912;2.74122807017544;0.6062179;1.15;0.6723925;1.164424;-0.6893655;1.621553;-0.6885975;1.638268;
637945433774367282;989.0345;12;5;2.5;0.3;1.4;755;3.3112582781457;-0.4499517;2.036231;-0.3584742;1.944418;0.6062179;1.15;0.6723925;1.164424;
637945433782263664;989.8242;12;5;2.5;0.3;1.4;790;3.16455696202532;0.2394144;0.8422153;0.1399243;0.9420596;-0.4499517;2.036231;-0.3584742;1.944418;
637945433831992356;994.7863;12;5;4.5;0.1;2.2;2909;1.54692334135442;-0.3762217;0.4663379;-0.3481714;0.5070175;0;2.6;-0.005352645;2.552175;
637945433866989442;998.2856;12;5;4.5;0.1;2.2;3483;1.29198966408269;0.7070663;2.342649;0.6789373;2.307745;-0.3762217;0.4663379;-0.3481714;0.5070175;
637945433898434942;1001.442;12;5;4.5;0.1;2.2;3131;1.43724049824337;-0.9526277;0.9499994;-0.9129221;0.9355134;0.7070663;2.342649;0.6789373;2.307745;
637945433921959052;1003.783;12;5;4.5;0.1;2.2;2341;1.92225544639043;1.083289;1.691013;1.092721;1.729693;-0.9526277;0.9499994;-0.9129221;0.9355134;
637945433940337269;1005.631;12;5;4.5;0.1;2.2;1848;2.43506493506493;-1.083289;1.691012;-1.03484;1.679112;1.083289;1.691013;1.092721;1.729693;
637945433959045536;1007.491;12;5;4.5;0.1;2.2;1860;2.41935483870968;0.9526281;0.9500003;0.9286341;0.9579678;-1.083289;1.691012;-1.03484;1.679112;
637945433981934532;1009.778;12;5;4.5;0.1;2.2;2287;1.96764320069961;-0.7070671;2.342648;-0.6575626;2.335629;0.9526281;0.9500003;0.9286341;0.9579678;
637945434001022876;1011.689;12;5;4.5;0.1;2.2;1911;2.35478806907378;0.3762226;0.4663382;0.3337044;0.4862341;-0.7070671;2.342648;-0.6575626;2.335629;
637945434049923731;1016.577;12;5;2;0.6;1.8;2601;0.768935024990388;-0.3078177;0.6542765;-0.2359688;0.8678112;0;2.4;0.01735206;2.128691;
637945434060125514;1017.598;12;5;2;0.6;1.8;1021;1.9588638589618;0.5785087;2.18944;0.451914;2.041595;-0.3078177;0.6542765;-0.2359688;0.8678112;
637945434070997420;1018.687;12;5;2;0.6;1.8;1089;1.83654729109275;-0.7794226;1.05;-0.7129193;1.065753;0.5785087;2.18944;0.451914;2.041595;
637945434080994168;1019.686;12;5;2;0.6;1.8;999;2.002002002002;0.8863269;1.656283;0.7565205;1.65825;-0.7794226;1.05;-0.7129193;1.065753;
637945434090985915;1020.686;12;5;2;0.6;1.8;1000;2;-0.8863271;1.656283;-0.8127633;1.67531;0.8863269;1.656283;0.7565205;1.65825;
637945434102077855;1021.795;12;5;2;0.6;1.8;1109;1.8034265103697;0.779423;1.05;0.7613006;1.222605;-0.8863271;1.656283;-0.8127633;1.67531;
637945434114970106;1023.084;12;5;2;0.6;1.8;1289;1.55159038013964;-0.5785094;2.18944;-0.4976875;2.149228;0.779423;1.05;0.7613006;1.222605;
637945434133964237;1024.983;12;5;2;0.6;1.8;1900;1.05263157894737;0.3078185;0.6542768;0.3101649;0.9042252;-0.5785094;2.18944;-0.4976875;2.149228;
637945434836395230;1095.226;12;6;1.5;1.1;2;800;1.875;-0.3420197;0.5603072;-0.2649453;0.8799436;0;2.5;-0.0008965414;2.098517;
637945434842556307;1095.853;12;6;1.5;1.1;2;627;2.39234449760766;0.6427875;2.266045;0.3183874;1.834013;-0.3420197;0.5603072;-0.2649453;0.8799436;
637945434850182638;1096.604;12;6;1.5;1.1;2;751;1.99733688415446;-0.8660251;0.9999995;-0.6510422;1.286408;0.6427875;2.266045;0.3183874;1.834013;
637945434858379072;1097.424;12;6;1.5;1.1;2;820;1.82926829268293;0.9848077;1.673648;0.5865765;1.419847;-0.8660251;0.9999995;-0.6510422;1.286408;
637945434866375467;1098.224;12;6;1.5;1.1;2;800;1.875;-0.9848078;1.673648;-0.6109781;1.60436;0.9848077;1.673648;0.5865765;1.419847;
637945434873261673;1098.912;12;6;1.5;1.1;2;688;2.18023255813953;0.8660256;1;0.5688689;1.227521;-0.9848078;1.673648;-0.6109781;1.60436;
637945434879647788;1099.562;12;6;1.5;1.1;2;650;2.30769230769231;-0.6427882;2.266044;-0.3982921;1.795791;0.8660256;1;0.5688689;1.227521;
637945434887264119;1100.311;12;6;1.5;1.1;2;749;2.00267022696929;0.3420205;0.5603075;0.2917645;0.9144415;-0.6427882;2.266044;-0.3982921;1.795791;
637945434898881152;1101.486;12;6;2;0.6;1.8;575;3.47826086956522;-0.3078177;0.6542765;-0.2082758;0.9364961;0;2.4;-0.06213144;2.161385;
637945434907242614;1102.31;12;6;2;0.6;1.8;824;2.42718446601942;0.5785087;2.18944;0.589247;2.120698;-0.3078177;0.6542765;-0.2082758;0.9364961;
637945434957486399;1107.333;12;6;2;0.6;1.8;5023;0.398168425243878;-0.7794226;1.05;-0.5951033;1.118058;0.5785087;2.18944;0.589247;2.120698;
637945434969468491;1108.531;12;6;2;0.6;1.8;1198;1.66944908180301;0.8863269;1.656283;0.6081715;1.576461;-0.7794226;1.05;-0.5951033;1.118058;
637945434979455240;1109.531;12;6;2;0.6;1.8;1000;2;-0.8863271;1.656283;-0.6373831;1.544988;0.8863269;1.656283;0.6081715;1.576461;
637945434985926370;1110.19;12;6;2;0.6;1.8;658;3.03951367781155;0.779423;1.05;0.5337467;1.218692;-0.8863271;1.656283;-0.6373831;1.544988;
637945435006530476;1112.239;12;6;2;0.6;1.8;2050;0.975609756097561;-0.5785094;2.18944;-0.4782718;2.10379;0.779423;1.05;0.5337467;1.218692;
637945435016528837;1113.239;12;6;2;0.6;1.8;1000;2;0.3078185;0.6542768;0.07127553;0.8042573;-0.5785094;2.18944;-0.4782718;2.10379;
637945435054060405;1117.004;12;6;4.5;0.1;2.2;2565;1.75438596491228;-0.3762217;0.4663379;-0.3280415;0.4746804;0;2.6;0.007097319;2.567029;
637945435063402037;1117.927;12;6;4.5;0.1;2.2;923;4.87540628385699;0.7070663;2.342649;0.6814439;2.373552;-0.3762217;0.4663379;-0.3280415;0.4746804;
637945435112475617;1122.834;12;6;4.5;0.1;2.2;4907;0.917057265131445;-0.9526277;0.9499994;-0.9621633;0.9514985;0.7070663;2.342649;0.6814439;2.373552;
637945435132464110;1124.833;12;6;4.5;0.1;2.2;1999;2.25112556278139;1.083289;1.691013;1.05719;1.663058;-0.9526277;0.9499994;-0.9621633;0.9514985;
637945435159563850;1127.543;12;6;4.5;0.1;2.2;2710;1.66051660516605;-1.083289;1.691012;-1.058449;1.675027;1.083289;1.691013;1.05719;1.663058;
637945435178447154;1129.431;12;6;4.5;0.1;2.2;1888;2.38347457627119;0.9526281;0.9500003;0.9470751;0.959317;-1.083289;1.691012;-1.058449;1.675027;
637945435210424561;1132.629;12;6;4.5;0.1;2.2;3198;1.40712945590994;-0.7070671;2.342648;-0.6707062;2.365471;0.9526281;0.9500003;0.9470751;0.959317;
637945435224992113;1134.097;12;6;4.5;0.1;2.2;1468;3.06539509536785;0.3762226;0.4663382;0.3457888;0.4417239;-0.7070671;2.342648;-0.6707062;2.365471;
637945435320608824;1143.646;12;6;3;0.2;1.4;5196;0.577367205542725;-0.2394138;0.8422151;-0.2319225;0.9138594;0;2.2;-0.0106661;2.173839;
637945435349098809;1146.508;12;6;3;0.2;1.4;2862;1.0482180293501;0.4499513;2.036231;0.4145413;1.94748;-0.2394138;0.8422151;-0.2319225;0.9138594;
637945435378563959;1149.443;12;6;3;0.2;1.4;2935;1.0221465076661;-0.6062176;1.15;-0.5594161;1.178762;0.4499513;2.036231;0.4145413;1.94748;
637945435387480518;1150.333;12;6;3;0.2;1.4;890;3.37078651685393;0.6893654;1.621554;0.6075055;1.564443;-0.6062176;1.15;-0.5594161;1.178762;
637945435419956196;1153.593;12;6;3;0.2;1.4;3260;0.920245398773006;-0.6893655;1.621553;-0.5989772;1.624093;0.6893654;1.621554;0.6075055;1.564443;
637945435463648831;1157.951;12;6;3;0.2;1.4;4358;0.688389169343736;0.6062179;1.15;0.5836062;1.185167;-0.6893655;1.621553;-0.5989772;1.624093;
637945435504505972;1162.037;12;6;3;0.2;1.4;4086;0.734214390602056;-0.4499517;2.036231;-0.4324737;2.040013;0.6062179;1.15;0.5836062;1.185167;
637945435518615706;1163.448;12;6;3;0.2;1.4;1411;2.12615166548547;0.2394144;0.8422153;0.1697267;0.9131576;-0.4499517;2.036231;-0.4324737;2.040013;
637945435593478792;1170.934;12;6;2.5;0.3;1.4;1598;1.56445556946183;-0.2394138;0.8422151;-0.1542729;0.7307832;0;2.2;0.002173353;2.147895;
637945435605480892;1172.134;12;6;2.5;0.3;1.4;1200;2.08333333333333;0.4499513;2.036231;0.4458661;1.910393;-0.2394138;0.8422151;-0.1542729;0.7307832;
637945435615672674;1173.154;12;6;2.5;0.3;1.4;1020;2.45098039215686;-0.6062176;1.15;-0.482007;1.233782;0.4499513;2.036231;0.4458661;1.910393;
637945435626564573;1174.242;12;6;2.5;0.3;1.4;1088;2.29779411764706;0.6893654;1.621554;0.6456713;1.569882;-0.6062176;1.15;-0.482007;1.233782;
637945435636546322;1175.241;12;6;2.5;0.3;1.4;999;2.5025025025025;-0.6893655;1.621553;-0.6153854;1.640622;0.6893654;1.621554;0.6456713;1.569882;
637945435670537267;1178.64;12;6;2.5;0.3;1.4;3399;0.735510444248308;0.6062179;1.15;0.5725588;1.240909;-0.6893655;1.621553;-0.6153854;1.640622;
637945435681654208;1179.752;12;6;2.5;0.3;1.4;1112;2.24820143884892;-0.4499517;2.036231;-0.5450721;2.003801;0.6062179;1.15;0.5725588;1.240909;
637945435702987938;1181.897;12;6;2.5;0.3;1.4;2145;1.16550116550117;0.2394144;0.8422153;0.09738528;0.8785466;-0.4499517;2.036231;-0.5450721;2.003801;
637945435728502399;1184.437;12;6;3.5;0.2;2;1199;2.91909924937448;-0.3420197;0.5603072;-0.3107699;0.6293859;0;2.5;-0.05700143;2.46235;
637945435740719538;1185.659;12;6;3.5;0.2;2;1222;2.86415711947627;0.6427875;2.266045;0.5653023;2.239511;-0.3420197;0.5603072;-0.3107699;0.6293859;
637945435772596540;1188.846;12;6;3.5;0.2;2;3187;1.09821148415438;-0.8660251;0.9999995;-0.8353782;1.021978;0.6427875;2.266045;0.5653023;2.239511;
637945435786603983;1190.245;12;6;3.5;0.2;2;1399;2.50178699070765;0.9848077;1.673648;0.9045489;1.643022;-0.8660251;0.9999995;-0.8353782;1.021978;
637945435813688722;1192.956;12;6;3.5;0.2;2;2711;1.29103651789008;-0.9848078;1.673648;-0.9431863;1.671118;0.9848077;1.673648;0.9045489;1.643022;
637945435827686172;1194.355;12;6;3.5;0.2;2;1399;2.50178699070765;0.8660256;1;0.8378925;1.051879;-0.9848078;1.673648;-0.9431863;1.671118;
637945435836572722;1195.242;12;6;3.5;0.2;2;887;3.94588500563698;-0.6427882;2.266044;-0.6691891;2.268358;0.8660256;1;0.8378925;1.051879;
637945435850645186;1196.642;12;6;3.5;0.2;2;1400;2.5;0.3420205;0.5603075;0.3621358;0.6177477;-0.6427882;2.266044;-0.6691891;2.268358;
637945435927644092;1204.352;12;6;4;0.1;1.4;1801;2.22098833981122;-0.2394138;0.8422151;-0.2289065;0.8581893;0;2.2;0.01183863;2.176215;
637945435961620037;1207.749;12;6;4;0.1;1.4;3397;1.17750956726523;0.4499513;2.036231;0.4499155;2.045726;-0.2394138;0.8422151;-0.2289065;0.8581893;
637945435986709422;1210.258;12;6;4;0.1;1.4;2509;1.59426066161817;-0.6062176;1.15;-0.5821127;1.16354;0.4499513;2.036231;0.4499155;2.045726;
637945436009584896;1212.545;12;6;4;0.1;1.4;2287;1.74901617839965;0.6893654;1.621554;0.6552436;1.643046;-0.6062176;1.15;-0.5821127;1.16354;
637945436028730085;1214.458;12;6;4;0.1;1.4;1913;2.09095661265029;-0.6893655;1.621553;-0.658075;1.627649;0.6893654;1.621554;0.6552436;1.643046;
637945436048723581;1216.457;12;6;4;0.1;1.4;2000;2;0.6062179;1.15;0.5876127;1.194774;-0.6893655;1.621553;-0.658075;1.627649;
637945436070807442;1218.667;12;6;4;0.1;1.4;2190;1.82648401826484;-0.4499517;2.036231;-0.4619776;2.045835;0.6062179;1.15;0.5876127;1.194774;
637945436094791629;1221.065;12;6;4;0.1;1.4;2399;1.66736140058358;0.2394144;0.8422153;0.2286188;0.8858857;-0.4499517;2.036231;-0.4619776;2.045835;
637945436937941644;1305.383;12;7;4.5;0.1;2.2;2874;1.56576200417537;-0.3762217;0.4663379;-0.3593103;0.4760499;0;2.6;0.003154597;2.552628;
637945436977121152;1309.302;12;7;4.5;0.1;2.2;3918;1.14854517611026;0.7070663;2.342649;0.7048672;2.349209;-0.3762217;0.4663379;-0.3593103;0.4760499;
637945437005966199;1312.186;12;7;4.5;0.1;2.2;2885;1.55979202772964;-0.9526277;0.9499994;-0.907555;0.9567817;0.7070663;2.342649;0.7048672;2.349209;
637945437051944746;1316.784;12;7;4.5;0.1;2.2;4574;0.983821600349803;1.083289;1.691013;1.041579;1.696395;-0.9526277;0.9499994;-0.907555;0.9567817;
637945437072928618;1318.883;12;7;4.5;0.1;2.2;2099;2.14387803716055;-1.083289;1.691012;-1.044752;1.675019;1.083289;1.691013;1.041579;1.696395;
637945437094999317;1321.09;12;7;4.5;0.1;2.2;2173;2.07086976530143;0.9526281;0.9500003;0.9448073;0.9897898;-1.083289;1.691012;-1.044752;1.675019;
637945437118304268;1323.418;12;7;4.5;0.1;2.2;2312;1.94636678200692;-0.7070671;2.342648;-0.6745397;2.318237;0.9526281;0.9500003;0.9448073;0.9897898;
637945437139602985;1325.55;12;7;4.5;0.1;2.2;2132;2.11069418386492;0.3762226;0.4663382;0.3778746;0.4714597;-0.7070671;2.342648;-0.6745397;2.318237;
637945437157996200;1327.389;12;7;1.5;1.1;2;799;1.87734668335419;-0.3420197;0.5603072;-0.05676838;0.9189153;0;2.5;0.1623816;2.072021;
637945437172124809;1328.801;12;7;1.5;1.1;2;1412;1.06232294617564;0.6427875;2.266045;0.4331405;1.878193;-0.3420197;0.5603072;-0.05676838;0.9189153;
637945437184987055;1330.088;12;7;1.5;1.1;2;1287;1.16550116550117;-0.8660251;0.9999995;-0.6393428;1.386972;0.6427875;2.266045;0.4331405;1.878193;
637945437192093297;1330.799;12;7;1.5;1.1;2;711;2.10970464135021;0.9848077;1.673648;0.5238177;1.595037;-0.8660251;0.9999995;-0.6393428;1.386972;
637945437202005030;1331.79;12;7;1.5;1.1;2;991;1.51362260343088;-0.9848078;1.673648;-0.6502632;1.707907;0.9848077;1.673648;0.5238177;1.595037;
637945437213034374;1332.893;12;7;1.5;1.1;2;1103;1.3599274705349;0.8660256;1;0.6212997;1.338431;-0.9848078;1.673648;-0.6502632;1.707907;
637945437225076480;1334.097;12;7;1.5;1.1;2;1204;1.24584717607973;-0.6427882;2.266044;-0.3307574;1.866668;0.8660256;1;0.6212997;1.338431;
637945437237068577;1335.296;12;7;1.5;1.1;2;1199;1.25104253544621;0.3420205;0.5603075;0.3461265;0.9666673;-0.6427882;2.266044;-0.3307574;1.866668;
637945437272135787;1338.801;12;7;3;0.2;1.4;1071;2.80112044817927;-0.2394138;0.8422151;-0.2428507;0.9070555;0;2.2;-0.03605558;2.180799;
637945437292164293;1340.806;12;7;3;0.2;1.4;2004;1.49700598802395;0.4499513;2.036231;0.3964747;2.010716;-0.2394138;0.8422151;-0.2428507;0.9070555;
637945437309147262;1342.504;12;7;3;0.2;1.4;1698;1.76678445229682;-0.6062176;1.15;-0.5575266;1.176456;0.4499513;2.036231;0.3964747;2.010716;
637945437323264729;1343.916;12;7;3;0.2;1.4;1412;2.12464589235128;0.6893654;1.621554;0.6310782;1.556779;-0.6062176;1.15;-0.5575266;1.176456;
637945437342128027;1345.802;12;7;3;0.2;1.4;1887;1.58982511923688;-0.6893655;1.621553;-0.6290206;1.575529;0.6893654;1.621554;0.6310782;1.556779;
637945437356120481;1347.202;12;7;3;0.2;1.4;1399;2.14438884917798;0.6062179;1.15;0.5572614;1.183551;-0.6893655;1.621553;-0.6290206;1.575529;
637945437375550848;1349.156;12;7;3;0.2;1.4;1954;1.5353121801433;-0.4499517;2.036231;-0.3922765;2.106868;0.6062179;1.15;0.5572614;1.183551;
637945437395219447;1351.11;12;7;3;0.2;1.4;1955;1.53452685421995;0.2394144;0.8422153;0.2380553;0.9066672;-0.4499517;2.036231;-0.3922765;2.106868;
637945437429080979;1354.498;12;7;3.5;0.2;2;1999;1.75087543771886;-0.3420197;0.5603072;-0.3121972;0.628018;0;2.5;0.02316684;2.435616;
637945437441103077;1355.7;12;7;3.5;0.2;2;1202;2.91181364392679;0.6427875;2.266045;0.6345347;2.180826;-0.3420197;0.5603072;-0.3121972;0.628018;
637945437449079468;1356.497;12;7;3.5;0.2;2;797;4.39146800501882;-0.8660251;0.9999995;-0.7875327;1.061506;0.6427875;2.266045;0.6345347;2.180826;
637945437471115731;1358.701;12;7;3.5;0.2;2;2194;1.59525979945305;0.9848077;1.673648;0.893577;1.679929;-0.8660251;0.9999995;-0.7875327;1.061506;
637945437490294081;1360.618;12;7;3.5;0.2;2;1917;1.82576943140323;-0.9848078;1.673648;-1.011765;1.731635;0.9848077;1.673648;0.893577;1.679929;
637945437506281879;1362.218;12;7;3.5;0.2;2;1590;2.20125786163522;0.8660256;1;0.8106115;0.9892497;-0.9848078;1.673648;-1.011765;1.731635;
637945437569130607;1368.502;12;7;3.5;0.2;2;6285;0.556881463802705;-0.6427882;2.266044;-0.5956674;2.277936;0.8660256;1;0.8106115;0.9892497;
637945437590135793;1370.603;12;7;3.5;0.2;2;2100;1.66666666666667;0.3420205;0.5603075;0.35824;0.6147771;-0.6427882;2.266044;-0.5956674;2.277936;
637945437648200948;1376.41;12;7;4;0.1;1.4;1788;2.23713646532438;-0.2394138;0.8422151;-0.2287424;0.8664849;0;2.2;0.004140815;2.182757;
637945437670179788;1378.608;12;7;4;0.1;1.4;2198;1.81983621474067;0.4499513;2.036231;0.4100185;2.052405;-0.2394138;0.8422151;-0.2287424;0.8664849;
637945437691178461;1380.707;12;7;4;0.1;1.4;2097;1.90748688602766;-0.6062176;1.15;-0.5995421;1.143324;0.4499513;2.036231;0.4100185;2.052405;
637945437711321977;1382.719;12;7;4;0.1;1.4;2013;1.98708395429707;0.6893654;1.621554;0.6604472;1.619892;-0.6062176;1.15;-0.5995421;1.143324;
637945437729200108;1384.51;12;7;4;0.1;1.4;1790;2.23463687150838;-0.6893655;1.621553;-0.6799431;1.643834;0.6893654;1.621554;0.6604472;1.619892;
637945437750224192;1386.612;12;7;4;0.1;1.4;2102;1.90294957183635;0.6062179;1.15;0.5823913;1.181278;-0.6893655;1.621553;-0.6799431;1.643834;
637945437783254967;1389.915;12;7;4;0.1;1.4;3303;1.21102028458977;-0.4499517;2.036231;-0.4805134;2.059696;0.6062179;1.15;0.5823913;1.181278;
637945437806346464;1392.224;12;7;4;0.1;1.4;2243;1.78332590280874;0.2394144;0.8422153;0.2341924;0.8714885;-0.4499517;2.036231;-0.4805134;2.059696;
637945437834216526;1395.011;12;7;2.5;0.3;1.4;1499;1.66777851901268;-0.2394138;0.8422151;-0.1626736;0.9116378;0;2.2;-0.0374038;2.060493;
637945437853325240;1396.922;12;7;2.5;0.3;1.4;1896;1.31856540084388;0.4499513;2.036231;0.4245579;2.06205;-0.2394138;0.8422151;-0.1626736;0.9116378;
637945437870223195;1398.612;12;7;2.5;0.3;1.4;1689;1.4801657785672;-0.6062176;1.15;-0.5380319;1.183779;0.4499513;2.036231;0.4245579;2.06205;
637945437894192385;1401.009;12;7;2.5;0.3;1.4;2397;1.04297037964122;0.6893654;1.621554;0.5581869;1.556856;-0.6062176;1.15;-0.5380319;1.183779;
637945437925202806;1404.11;12;7;2.5;0.3;1.4;3101;0.806191551112544;-0.6893655;1.621553;-0.6562536;1.651938;0.6893654;1.621554;0.5581869;1.556856;
637945437938390111;1405.428;12;7;2.5;0.3;1.4;1319;1.89537528430629;0.6062179;1.15;0.476649;1.174247;-0.6893655;1.621553;-0.6562536;1.651938;
637945437984265224;1410.016;12;7;2.5;0.3;1.4;4588;0.544899738448126;-0.4499517;2.036231;-0.4118115;2.042037;0.6062179;1.15;0.476649;1.174247;
637945438001268194;1411.714;12;7;2.5;0.3;1.4;1698;1.47232037691402;0.2394144;0.8422153;0.2075526;0.9044021;-0.4499517;2.036231;-0.4118115;2.042037;
637945438026239036;1414.214;12;7;2;0.6;1.8;1278;1.56494522691706;-0.3078177;0.6542765;-0.1699845;0.8911349;0;2.4;-0.2056649;2.296225;
637945438062270339;1417.816;12;7;2;0.6;1.8;3603;0.555092978073827;0.5785087;2.18944;0.4808786;2.182579;-0.3078177;0.6542765;-0.1699845;0.8911349;
637945438073302265;1418.92;12;7;2;0.6;1.8;1103;1.81323662737987;-0.7794226;1.05;-0.5266492;1.040118;0.5785087;2.18944;0.4808786;2.182579;
637945438083354234;1419.923;12;7;2;0.6;1.8;1003;1.99401794616152;0.8863269;1.656283;0.797034;1.853166;-0.7794226;1.05;-0.5266492;1.040118;
637945438095316330;1421.121;12;7;2;0.6;1.8;1198;1.66944908180301;-0.8863271;1.656283;-0.713984;1.640717;0.8863269;1.656283;0.797034;1.853166;
637945438111311486;1422.721;12;7;2;0.6;1.8;1599;1.25078173858662;0.779423;1.05;0.5906898;1.282531;-0.8863271;1.656283;-0.713984;1.640717;
637945438131299981;1424.72;12;7;2;0.6;1.8;1999;1.00050025012506;-0.5785094;2.18944;-0.4970148;2.272233;0.779423;1.05;0.5906898;1.282531;
637945438148303230;1426.42;12;7;2;0.6;1.8;1648;1.21359223300971;0.3078185;0.6542768;0.4054296;0.9226878;-0.5785094;2.18944;-0.4970148;2.272233;
