637945352345939210;135.0696;10;0;2.5;0.3;1.4;800;3.125;-0.2394138;0.8422151;-0.295884;0.7490758;0;2.2;0.01644438;2.215993;
637945352355930954;136.0697;10;0;2.5;0.3;1.4;1000;2.5;0.4499513;2.036231;0.5057757;2.009884;-0.2394138;0.8422151;-0.295884;0.7490758;
637945352365047550;136.9803;10;0;2.5;0.3;1.4;911;2.74423710208562;-0.6062176;1.15;-0.6274418;1.092032;0.4499513;2.036231;0.5057757;2.009884;
637945352376035051;138.0792;10;0;2.5;0.3;1.4;1096;2.28102189781022;0.6893654;1.621554;0.6943073;1.72711;-0.6062176;1.15;-0.6274418;1.092032;
637945352386366862;139.124;10;0;2.5;0.3;1.4;1045;2.39234449760766;-0.6893655;1.621553;-0.8260477;1.642995;0.6893654;1.621554;0.6943073;1.72711;
637945352407010466;141.1775;10;0;2.5;0.3;1.4;2053;1.21773015099854;0.6062179;1.15;0.5529222;1.237229;-0.6893655;1.621553;-0.8260477;1.642995;
637945352415927239;142.0687;10;0;2.5;0.3;1.4;891;2.80583613916947;-0.4499517;2.036231;-0.4883994;2.036532;0.6062179;1.15;0.5529222;1.237229;
637945352428023988;143.2785;10;0;2.5;0.3;1.4;1210;2.06611570247934;0.2394144;0.8422153;0.2507872;0.7788379;-0.4499517;2.036231;-0.4883994;2.036532;
637945352446997515;145.1759;10;0;2;0.6;1.8;1088;1.83823529411765;-0.3078177;0.6542765;-0.2955412;0.7737203;0;2.4;0.04146953;2.184549;
637945352454953908;145.9722;10;0;2;0.6;1.8;796;2.51256281407035;0.5785087;2.18944;0.559952;2.036368;-0.3078177;0.6542765;-0.2955412;0.7737203;
637945352476102606;148.0872;10;0;2;0.6;1.8;2115;0.945626477541371;-0.7794226;1.05;-0.7770729;1.089178;0.5785087;2.18944;0.559952;2.036368;
637945352485014169;148.9779;10;0;2;0.6;1.8;891;2.24466891133558;0.8863269;1.656283;0.6522503;1.611147;-0.7794226;1.05;-0.7770729;1.089178;
637945352494970905;149.9734;10;0;2;0.6;1.8;995;2.01005025125628;-0.8863271;1.656283;-0.5977051;1.701137;0.8863269;1.656283;0.6522503;1.611147;
637945352504092814;150.8859;10;0;2;0.6;1.8;897;2.22965440356745;0.779423;1.05;0.6447097;1.242365;-0.8863271;1.656283;-0.5977051;1.701137;
637945352514099800;151.8851;10;0;2;0.6;1.8;999;2.002002002002;-0.5785094;2.18944;-0.4201169;2.089943;0.779423;1.05;0.6447097;1.242365;
637945352523181384;152.795;10;0;2;0.6;1.8;910;2.1978021978022;0.3078185;0.6542768;0.2676496;0.919626;-0.5785094;2.18944;-0.4201169;2.089943;
637945352546074960;155.0839;10;0;3;0.2;1.4;1199;2.50208507089241;-0.2394138;0.8422151;-0.20673;0.9366348;0;2.2;0.01051183;2.145449;
637945352568078805;157.2821;10;0;3;0.2;1.4;2198;1.36487716105551;0.4499513;2.036231;0.4002514;2.049147;-0.2394138;0.8422151;-0.20673;0.9366348;
637945352582371302;158.7245;10;0;3;0.2;1.4;1442;2.08044382801664;-0.6062176;1.15;-0.5113447;1.144275;0.4499513;2.036231;0.4002514;2.049147;
637945352597758594;160.2637;10;0;3;0.2;1.4;1537;1.95185426154847;0.6893654;1.621554;0.5959159;1.60176;-0.6062176;1.15;-0.5113447;1.144275;
637945352609625668;161.4503;10;0;3;0.2;1.4;1186;2.52951096121417;-0.6893655;1.621553;-0.5914637;1.625499;0.6893654;1.621554;0.5959159;1.60176;
637945352628213911;163.2982;10;0;3;0.2;1.4;1848;1.62337662337662;0.6062179;1.15;0.530782;1.170804;-0.6893655;1.621553;-0.5914637;1.625499;
637945352646259984;165.1016;10;0;3;0.2;1.4;1803;1.66389351081531;-0.4499517;2.036231;-0.4234734;2.038741;0.6062179;1.15;0.530782;1.170804;
637945352658737154;166.3612;10;0;3;0.2;1.4;1260;2.38095238095238;0.2394144;0.8422153;0.1909291;0.9289594;-0.4499517;2.036231;-0.4234734;2.038741;
637945352683211433;168.7979;10;0;4.5;0.1;2.2;1110;4.05405405405405;-0.3762217;0.4663379;-0.3407039;0.4959235;0;2.6;-0.00315512;2.620166;
637945352700134393;170.4883;10;0;4.5;0.1;2.2;1690;2.66272189349112;0.7070663;2.342649;0.6656139;2.336504;-0.3762217;0.4663379;-0.3407039;0.4959235;
637945352729819582;173.4694;10;0;4.5;0.1;2.2;2981;1.50956055015096;-0.9526277;0.9499994;-0.9495991;0.933817;0.7070663;2.342649;0.6656139;2.336504;
637945352742609532;174.7486;10;0;4.5;0.1;2.2;1279;3.51837372947615;1.083289;1.691013;1.034574;1.694988;-0.9526277;0.9499994;-0.9495991;0.933817;
637945352760472652;176.5343;10;0;4.5;0.1;2.2;1786;2.51959686450168;-1.083289;1.691012;-1.108057;1.701564;1.083289;1.691013;1.034574;1.694988;
637945352807154806;181.1919;10;0;4.5;0.1;2.2;4658;0.966079862601975;0.9526281;0.9500003;0.923781;0.98839;-1.083289;1.691012;-1.108057;1.701564;
637945352830179633;183.4931;10;0;4.5;0.1;2.2;2301;1.95567144719687;-0.7070671;2.342648;-0.703527;2.372132;0.9526281;0.9500003;0.923781;0.98839;
637945352881339473;188.61;10;0;4.5;0.1;2.2;5117;0.879421536056283;0.3762226;0.4663382;0.3573745;0.5069015;-0.7070671;2.342648;-0.703527;2.372132;
637945352929311749;193.4073;10;0;4;0.1;1.4;1907;2.09753539590981;-0.2394138;0.8422151;-0.2335606;0.8705153;0;2.2;0.01165337;2.206469;
637945352947306196;195.2067;10;0;4;0.1;1.4;1799;2.22345747637576;0.4499513;2.036231;0.4132639;2.036995;-0.2394138;0.8422151;-0.2335606;0.8705153;
637945352975176725;197.9946;10;0;4;0.1;1.4;2763;1.44770177343467;-0.6062176;1.15;-0.5640304;1.13812;0.4499513;2.036231;0.4132639;2.036995;
637945352996280416;200.1044;10;0;4;0.1;1.4;2110;1.8957345971564;0.6893654;1.621554;0.670514;1.626991;-0.6062176;1.15;-0.5640304;1.13812;
637945353012273415;201.7037;10;0;4;0.1;1.4;1599;2.50156347717323;-0.6893655;1.621553;-0.6554568;1.609187;0.6893654;1.621554;0.670514;1.626991;
637945353032294245;203.7054;10;0;4;0.1;1.4;2002;1.998001998002;0.6062179;1.15;0.5708849;1.176156;-0.6893655;1.621553;-0.6554568;1.609187;
637945353057243658;206.2012;10;0;4;0.1;1.4;2496;1.6025641025641;-0.4499517;2.036231;-0.4163091;2.04655;0.6062179;1.15;0.5708849;1.176156;
637945353091234599;209.6002;10;0;4;0.1;1.4;3399;1.17681671079729;0.2394144;0.8422153;0.2158032;0.8622732;-0.4499517;2.036231;-0.4163091;2.04655;
637945353109335010;211.4098;10;0;1.5;1.1;2;932;1.60944206008584;-0.3420197;0.5603072;-0.1263844;1.019789;0;2.5;0.01864736;2.354048;
637945353117218784;212.1988;10;0;1.5;1.1;2;789;1.90114068441065;0.6427875;2.266045;0.4289715;1.938307;-0.3420197;0.5603072;-0.1263844;1.019789;
637945353126244250;213.1002;10;0;1.5;1.1;2;901;1.66481687014428;-0.8660251;0.9999995;-0.639185;1.329763;0.6427875;2.266045;0.4289715;1.938307;
637945353134333437;213.9101;10;0;1.5;1.1;2;810;1.85185185185185;0.9848077;1.673648;1.116324;1.630089;-0.8660251;0.9999995;-0.639185;1.329763;
637945353142343679;214.7106;10;0;1.5;1.1;2;800;1.875;-0.9848078;1.673648;-0.7983484;1.718264;0.9848077;1.673648;1.116324;1.630089;
637945353152313894;215.7079;10;0;1.5;1.1;2;997;1.50451354062187;0.8660256;1;0.7426575;1.303933;-0.9848078;1.673648;-0.7983484;1.718264;
637945353163470847;216.822;10;0;1.5;1.1;2;1114;1.34649910233393;-0.6427882;2.266044;-0.7528569;2.114847;0.8660256;1;0.7426575;1.303933;
637945353172302389;217.7068;10;0;1.5;1.1;2;885;1.69491525423729;0.3420205;0.5603075;0.353959;0.8873814;-0.6427882;2.266044;-0.7528569;2.114847;
637945353206033287;221.0779;10;0;3.5;0.2;2;1259;2.77998411437649;-0.3420197;0.5603072;-0.2749771;0.6251006;0;2.5;-0.04373227;2.526282;
637945353226404786;223.1169;10;0;3.5;0.2;2;2023;1.73010380622837;0.6427875;2.266045;0.5943785;2.25602;-0.3420197;0.5603072;-0.2749771;0.6251006;
637945353242274233;224.7042;10;0;3.5;0.2;2;1587;2.20541902961563;-0.8660251;0.9999995;-0.8036894;1.054375;0.6427875;2.266045;0.5943785;2.25602;
637945353257299115;226.2064;10;0;3.5;0.2;2;1502;2.33022636484687;0.9848077;1.673648;0.9875845;1.749457;-0.8660251;0.9999995;-0.8036894;1.054375;
637945353269323511;227.4081;10;0;3.5;0.2;2;1202;2.91181364392679;-0.9848078;1.673648;-0.9434718;1.725907;0.9848077;1.673648;0.9875845;1.749457;
637945353284472888;228.9242;10;0;3.5;0.2;2;1516;2.30870712401055;0.8660256;1;0.8194568;1.050212;-0.9848078;1.673648;-0.9434718;1.725907;
637945353305352054;231.0113;10;0;3.5;0.2;2;2087;1.67704839482511;-0.6427882;2.266044;-0.6521456;2.260561;0.8660256;1;0.8194568;1.050212;
637945353318878461;232.3629;10;0;3.5;0.2;2;1352;2.5887573964497;0.3420205;0.5603075;0.2764661;0.6323866;-0.6427882;2.266044;-0.6521456;2.260561;
637945354445745591;345.0511;10;1;4.5;0.1;2.2;2981;1.50956055015096;-0.3762217;0.4663379;-0.3610909;0.5111172;0;2.6;0.03687377;2.587219;
637945354465896395;347.0664;10;1;4.5;0.1;2.2;2015;2.23325062034739;0.7070663;2.342649;0.7042941;2.365737;-0.3762217;0.4663379;-0.3610909;0.5111172;
637945354497906990;350.2662;10;1;4.5;0.1;2.2;3200;1.40625;-0.9526277;0.9499994;-0.9355248;0.9581952;0.7070663;2.342649;0.7042941;2.365737;
637945354521577094;352.6447;10;1;4.5;0.1;2.2;2335;1.9271948608137;1.083289;1.691013;1.035817;1.676136;-0.9526277;0.9499994;-0.9355248;0.9581952;
637945354545786893;355.0533;10;1;4.5;0.1;2.2;2400;1.875;-1.083289;1.691012;-1.109805;1.676234;1.083289;1.691013;1.035817;1.676136;
637945354587964521;359.2729;10;1;4.5;0.1;2.2;4207;1.06964582838127;0.9526281;0.9500003;0.9518633;0.9986855;-1.083289;1.691012;-1.109805;1.676234;
637945354612513814;361.7262;10;1;4.5;0.1;2.2;2453;1.83448838157358;-0.7070671;2.342648;-0.6732986;2.339747;0.9526281;0.9500003;0.9518633;0.9986855;
637945354633927632;363.8683;10;1;4.5;0.1;2.2;2120;2.12264150943396;0.3762226;0.4663382;0.3604893;0.5009105;-0.7070671;2.342648;-0.6732986;2.339747;
637945354660807872;366.5577;10;1;3.5;0.2;2;1400;2.5;-0.3420197;0.5603072;-0.3172805;0.6466892;0;2.5;-0.005464649;2.442856;
637945354673855150;367.8597;10;1;3.5;0.2;2;1300;2.69230769230769;0.6427875;2.266045;0.5908337;2.268647;-0.3420197;0.5603072;-0.3172805;0.6466892;
637945354687790059;369.2553;10;1;3.5;0.2;2;1391;2.51617541337168;-0.8660251;0.9999995;-0.7997807;1.067423;0.6427875;2.266045;0.5908337;2.268647;
637945354706883398;371.1649;10;1;3.5;0.2;2;1910;1.83246073298429;0.9848077;1.673648;0.954753;1.702369;-0.8660251;0.9999995;-0.7997807;1.067423;
637945354720875849;372.5641;10;1;3.5;0.2;2;1399;2.50178699070765;-0.9848078;1.673648;-0.8925633;1.686574;0.9848077;1.673648;0.954753;1.702369;
637945354748865739;375.363;10;1;3.5;0.2;2;2799;1.25044658806717;0.8660256;1;0.8502405;1.06207;-0.9848078;1.673648;-0.8925633;1.686574;
637945354773850106;377.8618;10;1;3.5;0.2;2;2499;1.40056022408964;-0.6427882;2.266044;-0.5864348;2.184023;0.8660256;1;0.8502405;1.06207;
637945354789936182;379.4608;10;1;3.5;0.2;2;1599;2.18886804252658;0.3420205;0.5603075;0.3787764;0.6105475;-0.6427882;2.266044;-0.5864348;2.184023;
637945354805953773;381.0718;10;1;1.5;1.1;2;806;1.86104218362283;-0.3420197;0.5603072;-0.2092558;0.8968645;0;2.5;-0.0152417;2.108887;
637945354813975175;381.8731;10;1;1.5;1.1;2;801;1.87265917602996;0.6427875;2.266045;0.5092141;2.09018;-0.3420197;0.5603072;-0.2092558;0.8968645;
637945354821976582;382.673;10;1;1.5;1.1;2;800;1.875;-0.8660251;0.9999995;-0.7510074;1.220773;0.6427875;2.266045;0.5092141;2.09018;
637945354830823332;383.5591;10;1;1.5;1.1;2;886;1.69300225733634;0.9848077;1.673648;0.6473528;1.648396;-0.8660251;0.9999995;-0.7510074;1.220773;
637945354838819731;384.3587;10;1;1.5;1.1;2;800;1.875;-0.9848078;1.673648;-0.7703708;1.677056;0.9848077;1.673648;0.6473528;1.648396;
637945354846908507;385.1675;10;1;1.5;1.1;2;809;1.85414091470952;0.8660256;1;0.7041309;1.191452;-0.9848078;1.673648;-0.7703708;1.677056;
637945354854924911;385.9691;10;1;1.5;1.1;2;794;1.88916876574307;-0.6427882;2.266044;-0.5012461;2.154559;0.8660256;1;0.7041309;1.191452;
637945354864031502;386.8794;10;1;1.5;1.1;2;910;1.64835164835165;0.3420205;0.5603075;0.4324143;1.101498;-0.6427882;2.266044;-0.5012461;2.154559;
637945354885930338;389.0685;10;1;3;0.2;1.4;1086;2.76243093922652;-0.2394138;0.8422151;-0.1940826;0.9050639;0;2.2;-0.006619811;2.187445;
637945354895887075;390.0626;10;1;3;0.2;1.4;994;3.01810865191147;0.4499513;2.036231;0.4407206;2.134554;-0.2394138;0.8422151;-0.1940826;0.9050639;
637945354909014790;391.377;10;1;3;0.2;1.4;1271;2.360346184107;-0.6062176;1.15;-0.5493705;1.230581;0.4499513;2.036231;0.4407206;2.134554;
637945354917891347;392.2658;10;1;3;0.2;1.4;889;3.37457817772778;0.6893654;1.621554;0.6088459;1.596386;-0.6062176;1.15;-0.5493705;1.230581;
637945354926997938;393.1764;10;1;3;0.2;1.4;911;3.29308452250274;-0.6893655;1.621553;-0.6569556;1.69062;0.6893654;1.621554;0.6088459;1.596386;
637945354940500305;394.5262;10;1;3;0.2;1.4;1350;2.22222222222222;0.6062179;1.15;0.5841718;1.227417;-0.6893655;1.621553;-0.6569556;1.69062;
637945354949892117;395.4655;10;1;3;0.2;1.4;939;3.19488817891374;-0.4499517;2.036231;-0.4520756;2.019429;0.6062179;1.15;0.5841718;1.227417;
637945354958873685;396.364;10;1;3;0.2;1.4;883;3.39750849377123;0.2394144;0.8422153;0.187355;0.9223597;-0.4499517;2.036231;-0.4520756;2.019429;
637945354986969462;399.1731;10;1;4;0.1;1.4;1498;2.67022696929239;-0.2394138;0.8422151;-0.2331157;0.8808966;0;2.2;-0.0008866405;2.173182;
637945355001982091;400.6741;10;1;4;0.1;1.4;1501;2.66489007328448;0.4499513;2.036231;0.4226793;2.038314;-0.2394138;0.8422151;-0.2331157;0.8808966;
637945355025866269;403.0624;10;1;4;0.1;1.4;2380;1.68067226890756;-0.6062176;1.15;-0.5789573;1.19073;0.4499513;2.036231;0.4226793;2.038314;
637945355071975341;407.6736;10;1;4;0.1;1.4;4611;0.867490782910432;0.6893654;1.621554;0.6659636;1.640648;-0.6062176;1.15;-0.5789573;1.19073;
637945355092925209;409.7686;10;1;4;0.1;1.4;2095;1.90930787589499;-0.6893655;1.621553;-0.6473997;1.633719;0.6893654;1.621554;0.6659636;1.640648;
637945355117911190;412.2676;10;1;4;0.1;1.4;2499;1.60064025610244;0.6062179;1.15;0.5999286;1.171647;-0.6893655;1.621553;-0.6473997;1.633719;
637945355161925018;416.6686;10;1;4;0.1;1.4;4389;0.911369332421964;-0.4499517;2.036231;-0.4210328;2.039734;0.6062179;1.15;0.5999286;1.171647;
637945355210095199;421.4859;10;1;4;0.1;1.4;4817;0.830392360390284;0.2394144;0.8422153;0.2126046;0.8377283;-0.4499517;2.036231;-0.4210328;2.039734;
637945355231994235;423.6758;10;1;2.5;0.3;1.4;1100;2.27272727272727;-0.2394138;0.8422151;-0.2050206;0.9082536;0;2.2;0.02081402;2.154909;
637945355240725756;424.5468;10;1;2.5;0.3;1.4;863;2.89687137891078;0.4499513;2.036231;0.3957477;1.940832;-0.2394138;0.8422151;-0.2050206;0.9082536;
637945355250072826;425.4841;10;1;2.5;0.3;1.4;937;2.66808964781217;-0.6062176;1.15;-0.685013;1.12454;0.4499513;2.036231;0.3957477;1.940832;
637945355259974553;426.4734;10;1;2.5;0.3;1.4;989;2.52780586450961;0.6893654;1.621554;0.5870031;1.573264;-0.6062176;1.15;-0.685013;1.12454;
637945355267965948;427.2729;10;1;2.5;0.3;1.4;799;3.12891113892365;-0.6893655;1.621553;-0.5938992;1.663107;0.6893654;1.621554;0.5870031;1.573264;
637945355278164977;428.293;10;1;2.5;0.3;1.4;1020;2.45098039215686;0.6062179;1.15;0.6147421;1.273865;-0.6893655;1.621553;-0.5938992;1.663107;
637945355291952390;429.6716;10;1;2.5;0.3;1.4;1379;1.81290790427846;-0.4499517;2.036231;-0.3777277;1.937671;0.6062179;1.15;0.6147421;1.273865;
637945355302149173;430.6917;10;1;2.5;0.3;1.4;1020;2.45098039215686;0.2394144;0.8422153;0.1703473;0.9612006;-0.4499517;2.036231;-0.3777277;1.937671;
637945355323032824;432.7785;10;1;2;0.6;1.8;1199;1.66805671392827;-0.3078177;0.6542765;-0.2285229;0.8359894;0;2.4;0.01200203;2.303086;
637945355331998800;433.6762;10;1;2;0.6;1.8;898;2.2271714922049;0.5785087;2.18944;0.4821093;2.14804;-0.3078177;0.6542765;-0.2285229;0.8359894;
637945355342970717;434.7736;10;1;2;0.6;1.8;1097;1.82315405651778;-0.7794226;1.05;-0.6331714;1.227441;0.5785087;2.18944;0.4821093;2.14804;
637945355352127318;435.6895;10;1;2;0.6;1.8;914;2.18818380743982;0.8863269;1.656283;0.9123414;1.630636;-0.7794226;1.05;-0.6331714;1.227441;
637945355361123890;436.5891;10;1;2;0.6;1.8;900;2.22222222222222;-0.8863271;1.656283;-0.8287414;1.622744;0.8863269;1.656283;0.9123414;1.630636;
637945355370999977;437.5761;10;1;2;0.6;1.8;987;2.02634245187437;0.779423;1.05;0.6629283;1.295167;-0.8863271;1.656283;-0.8287414;1.622744;
637945355380116573;438.4884;10;1;2;0.6;1.8;912;2.19298245614035;-0.5785094;2.18944;-0.5390826;2.162935;0.779423;1.05;0.6629283;1.295167;
637945355389028143;439.3776;10;1;2;0.6;1.8;889;2.24971878515186;0.3078185;0.6542768;0.1301529;0.7491015;-0.5785094;2.18944;-0.5390826;2.162935;
637945356248466360;525.3231;10;2;1.5;1.1;2;711;2.10970464135021;-0.3420197;0.5603072;-0.1164966;0.8592886;0;2.5;0.01950765;2.281796;
637945356255597609;526.0352;10;2;1.5;1.1;2;712;2.10674157303371;0.6427875;2.266045;0.4884086;2.198961;-0.3420197;0.5603072;-0.1164966;0.8592886;
637945356263604009;526.8354;10;2;1.5;1.1;2;800;1.875;-0.8660251;0.9999995;-0.6262018;1.298436;0.6427875;2.266045;0.4884086;2.198961;
637945356272410547;527.7177;10;2;1.5;1.1;2;882;1.70068027210884;0.9848077;1.673648;0.6226233;1.594317;-0.8660251;0.9999995;-0.6262018;1.298436;
637945356280554338;528.5323;10;2;1.5;1.1;2;782;1.91815856777494;-0.9848078;1.673648;-0.7623611;1.684904;0.9848077;1.673648;0.6226233;1.594317;
637945356287680584;529.2443;10;2;1.5;1.1;2;712;2.10674157303371;0.8660256;1;1.14209;1.313882;-0.9848078;1.673648;-0.7623611;1.684904;
637945356295511951;530.0237;10;2;1.5;1.1;2;779;1.92554557124519;-0.6427882;2.266044;-0.4787694;2.000481;0.8660256;1;1.14209;1.313882;
637945356304543531;530.931;10;2;1.5;1.1;2;907;1.65380374862183;0.3420205;0.5603075;0.2900733;0.9129741;-0.6427882;2.266044;-0.4787694;2.000481;
637945356325532205;533.03;10;2;2.5;0.3;1.4;908;2.75330396475771;-0.2394138;0.8422151;-0.2798939;0.9185314;0;2.2;0.01888099;2.211187;
637945356334404225;533.9145;10;2;2.5;0.3;1.4;877;2.85062713797035;0.4499513;2.036231;0.3724938;2.041756;-0.2394138;0.8422151;-0.2798939;0.9185314;
637945356344451136;534.9193;10;2;2.5;0.3;1.4;999;2.5025025025025;-0.6062176;1.15;-0.613958;1.230961;0.4499513;2.036231;0.3724938;2.041756;
637945356355518074;536.0283;10;2;2.5;0.3;1.4;1109;2.25428313796213;0.6893654;1.621554;0.5651165;1.598917;-0.6062176;1.15;-0.613958;1.230961;
637945356362834362;536.771;10;2;2.5;0.3;1.4;743;3.36473755047106;-0.6893655;1.621553;-0.8096127;1.660933;0.6893654;1.621554;0.5651165;1.598917;
637945356372431025;537.7181;10;2;2.5;0.3;1.4;947;2.63991552270327;0.6062179;1.15;0.4973499;1.151712;-0.6893655;1.621553;-0.8096127;1.660933;
637945356381507619;538.6273;10;2;2.5;0.3;1.4;909;2.75027502750275;-0.4499517;2.036231;-0.3570636;1.93827;0.6062179;1.15;0.4973499;1.151712;
637945356390429172;539.5178;10;2;2.5;0.3;1.4;890;2.80898876404494;0.2394144;0.8422153;0.2220891;0.9539216;-0.4499517;2.036231;-0.3570636;1.93827;
637945356406637007;541.1392;10;2;2;0.6;1.8;823;2.43013365735115;-0.3078177;0.6542765;-0.2761464;0.6982713;0;2.4;-0.06499988;2.341294;
637945356415588576;542.0351;10;2;2;0.6;1.8;896;2.23214285714286;0.5785087;2.18944;0.4963803;2.181523;-0.3078177;0.6542765;-0.2761464;0.6982713;
637945356423482671;542.8252;10;2;2;0.6;1.8;790;2.53164556962025;-0.7794226;1.05;-0.8927516;1.138243;0.5785087;2.18944;0.4963803;2.181523;
637945356430618915;543.538;10;2;2;0.6;1.8;713;2.80504908835905;0.8863269;1.656283;0.7130384;1.699596;-0.7794226;1.05;-0.8927516;1.138243;
637945356438625323;544.3384;10;2;2;0.6;1.8;800;2.5;-0.8863271;1.656283;-0.7706217;1.76404;0.8863269;1.656283;0.7130384;1.699596;
637945356447471949;545.2241;10;2;2;0.6;1.8;886;2.25733634311512;0.779423;1.05;0.971083;1.088703;-0.8863271;1.656283;-0.7706217;1.76404;
637945356454698212;545.9457;10;2;2;0.6;1.8;721;2.77392510402219;-0.5785094;2.18944;-0.4153349;2.029899;0.779423;1.05;0.971083;1.088703;
637945356462514584;546.7264;10;2;2;0.6;1.8;781;2.56081946222791;0.3078185;0.6542768;0.3261822;0.8073032;-0.5785094;2.18944;-0.4153349;2.029899;
637945356511447242;551.6212;10;2;3.5;0.2;2;1998;1.75175175175175;-0.3420197;0.5603072;-0.3430463;0.5659876;0;2.5;0.01295259;2.444137;
637945356527445268;553.2213;10;2;3.5;0.2;2;1600;2.1875;0.6427875;2.266045;0.5713086;2.220745;-0.3420197;0.5603072;-0.3430463;0.5659876;
637945356547438762;555.2206;10;2;3.5;0.2;2;1999;1.75087543771886;-0.8660251;0.9999995;-0.8165868;0.9860702;0.6427875;2.266045;0.5713086;2.220745;
637945356562582192;556.7332;10;2;3.5;0.2;2;1513;2.3132848645076;0.9848077;1.673648;1.014747;1.692644;-0.8660251;0.9999995;-0.8165868;0.9860702;
637945356574549282;557.9308;10;2;3.5;0.2;2;1198;2.92153589315526;-0.9848078;1.673648;-0.9022611;1.680465;0.9848077;1.673648;1.014747;1.692644;
637945356585751242;559.0516;10;2;3.5;0.2;2;1119;3.1277926720286;0.8660256;1;0.8149809;1.074657;-0.9848078;1.673648;-0.9022611;1.680465;
637945356596513122;560.1278;10;2;3.5;0.2;2;1076;3.25278810408922;-0.6427882;2.266044;-0.5581127;2.2474;0.8660256;1;0.8149809;1.074657;
637945356607625059;561.2386;10;2;3.5;0.2;2;1111;3.15031503150315;0.3420205;0.5603075;0.2793572;0.6354941;-0.6427882;2.266044;-0.5581127;2.2474;
637945356656525499;566.1276;10;2;4.5;0.1;2.2;2999;1.50050016672224;-0.3762217;0.4663379;-0.4170293;0.4374551;0;2.6;0.008774392;2.58263;
637945356675553573;568.032;10;2;4.5;0.1;2.2;1904;2.36344537815126;0.7070663;2.342649;0.6920376;2.327283;-0.3762217;0.4663379;-0.4170293;0.4374551;
637945356694680295;569.9446;10;2;4.5;0.1;2.2;1913;2.35232618923157;-0.9526277;0.9499994;-0.9154773;0.9550887;0.7070663;2.342649;0.6920376;2.327283;
637945356723554278;572.8325;10;2;4.5;0.1;2.2;2888;1.55817174515235;1.083289;1.691013;1.053947;1.675364;-0.9526277;0.9499994;-0.9154773;0.9550887;
637945356743508225;574.8274;10;2;4.5;0.1;2.2;1975;2.27848101265823;-1.083289;1.691012;-1.049715;1.68068;1.083289;1.691013;1.053947;1.675364;
637945356779805020;578.4549;10;2;4.5;0.1;2.2;3628;1.24035281146637;0.9526281;0.9500003;0.9125011;0.9762965;-1.083289;1.691012;-1.049715;1.68068;
637945356801639009;580.64;10;2;4.5;0.1;2.2;2185;2.05949656750572;-0.7070671;2.342648;-0.7191494;2.337115;0.9526281;0.9500003;0.9125011;0.9762965;
637945356819637785;582.4401;10;2;4.5;0.1;2.2;1800;2.5;0.3762226;0.4663382;0.3699632;0.491362;-0.7070671;2.342648;-0.7191494;2.337115;
637945356857279359;586.2157;10;2;4;0.1;1.4;2178;1.83654729109275;-0.2394138;0.8422151;-0.2350892;0.8914087;0;2.2;-0.02868479;2.224187;
637945356869601519;587.4367;10;2;4;0.1;1.4;1221;3.27600327600328;0.4499513;2.036231;0.4120898;2.063425;-0.2394138;0.8422151;-0.2350892;0.8914087;
637945356894813668;589.958;10;2;4;0.1;1.4;2521;1.58667195557319;-0.6062176;1.15;-0.5802678;1.172948;0.4499513;2.036231;0.4120898;2.063425;
637945356913684837;591.8449;10;2;4;0.1;1.4;1887;2.11976682564918;0.6893654;1.621554;0.6485026;1.629427;-0.6062176;1.15;-0.5802678;1.172948;
637945356934919530;593.9665;10;2;4;0.1;1.4;2122;1.88501413760603;-0.6893655;1.621553;-0.7101731;1.643593;0.6893654;1.621554;0.6485026;1.629427;
637945356952632836;595.7398;10;2;4;0.1;1.4;1773;2.25606316976875;0.6062179;1.15;0.5740829;1.183559;-0.6893655;1.621553;-0.7101731;1.643593;
637945356973816728;597.8559;10;2;4;0.1;1.4;2103;1.9020446980504;-0.4499517;2.036231;-0.426084;2.049843;0.6062179;1.15;0.5740829;1.183559;
637945357028091222;603.2966;10;2;4;0.1;1.4;5441;0.73515897812902;0.2394144;0.8422153;0.2220594;0.8876616;-0.4499517;2.036231;-0.426084;2.049843;
637945357070739901;607.5505;10;2;3;0.2;1.4;3238;0.926497838171711;-0.2394138;0.8422151;-0.20772;0.8948156;0;2.2;-0.05822823;2.276638;
637945357081167468;608.5926;10;2;3;0.2;1.4;1042;2.87907869481766;0.4499513;2.036231;0.4234862;2.015905;-0.2394138;0.8422151;-0.20772;0.8948156;
637945357094944873;609.9706;10;2;3;0.2;1.4;1378;2.17706821480406;-0.6062176;1.15;-0.5437147;1.185502;0.4499513;2.036231;0.4234862;2.015905;
637945357105931797;611.0699;10;2;3;0.2;1.4;1099;2.72975432211101;0.6893654;1.621554;0.6171118;1.630029;-0.6062176;1.15;-0.5437147;1.185502;
637945357123849270;612.8599;10;2;3;0.2;1.4;1790;1.67597765363128;-0.6893655;1.621553;-0.686677;1.54009;0.6893654;1.621554;0.6171118;1.630029;
637945357137851718;614.2596;10;2;3;0.2;1.4;1400;2.14285714285714;0.6062179;1.15;0.5461839;1.221999;-0.6893655;1.621553;-0.686677;1.54009;
637945357151799537;615.6564;10;2;3;0.2;1.4;1397;2.14745884037223;-0.4499517;2.036231;-0.4380222;2.059928;0.6062179;1.15;0.5461839;1.221999;
637945357173923617;617.8685;10;2;3;0.2;1.4;2212;1.35623869801085;0.2394144;0.8422153;0.2345497;0.9389019;-0.4499517;2.036231;-0.4380222;2.059928;
637945357877093366;688.1859;10;3;3.5;0.2;2;1685;2.07715133531157;-0.3420197;0.5603072;-0.3257837;0.6169972;0;2.5;0.008143531;2.509372;
637945357890308569;689.5071;10;3;3.5;0.2;2;1321;2.64950794852385;0.6427875;2.266045;0.5564396;2.219292;-0.3420197;0.5603072;-0.3257837;0.6169972;
637945357901115458;690.588;10;3;3.5;0.2;2;1077;3.24976787372331;-0.8660251;0.9999995;-0.8053105;1.022484;0.6427875;2.266045;0.5564396;2.219292;
637945357924114676;692.8862;10;3;3.5;0.2;2;2298;1.5230635335074;0.9848077;1.673648;0.9013576;1.709185;-0.8660251;0.9999995;-0.8053105;1.022484;
637945357935186610;693.9955;10;3;3.5;0.2;2;1109;3.15599639314698;-0.9848078;1.673648;-0.9273408;1.706349;0.9848077;1.673648;0.9013576;1.709185;
637945357956528583;696.1278;10;3;3.5;0.2;2;2132;1.64165103189493;0.8660256;1;0.817865;1.0593;-0.9848078;1.673648;-0.9273408;1.706349;
637945357967073556;697.1838;10;3;3.5;0.2;2;1056;3.31439393939394;-0.6427882;2.266044;-0.5742896;2.224221;0.8660256;1;0.817865;1.0593;
637945357981133378;698.587;10;3;3.5;0.2;2;1403;2.49465431218817;0.3420205;0.5603075;0.3384656;0.6586821;-0.6427882;2.266044;-0.5742896;2.224221;
637945358011153860;701.5921;10;3;4;0.1;1.4;1489;2.68636668905306;-0.2394138;0.8422151;-0.2146042;0.8790787;0;2.2;0.02151494;2.166148;
637945358026141482;703.0909;10;3;4;0.1;1.4;1499;2.66844563042028;0.4499513;2.036231;0.4206327;2.020117;-0.2394138;0.8422151;-0.2146042;0.8790787;
637945358042464333;704.7338;10;3;4;0.1;1.4;1643;2.43457090687766;-0.6062176;1.15;-0.5723304;1.170912;0.4499513;2.036231;0.4206327;2.020117;
637945358059236854;706.4005;10;3;4;0.1;1.4;1667;2.3995200959808;0.6893654;1.621554;0.6809011;1.670297;-0.6062176;1.15;-0.5723304;1.170912;
637945358082115853;708.6883;10;3;4;0.1;1.4;2288;1.74825174825175;-0.6893655;1.621553;-0.6522633;1.621447;0.6893654;1.621554;0.6809011;1.670297;
637945358108120125;711.2884;10;3;4;0.1;1.4;2600;1.53846153846154;0.6062179;1.15;0.5971035;1.127077;-0.6893655;1.621553;-0.6522633;1.621447;
637945358125433308;713.0192;10;3;4;0.1;1.4;1731;2.31080300404391;-0.4499517;2.036231;-0.4452272;1.997773;0.6062179;1.15;0.5971035;1.127077;
637945358140310910;714.5071;10;3;4;0.1;1.4;1488;2.68817204301075;0.2394144;0.8422153;0.2809056;0.8626548;-0.4499517;2.036231;-0.4452272;1.997773;
637945358172180543;717.6949;10;3;3;0.2;1.4;2299;1.30491518051327;-0.2394138;0.8422151;-0.2276052;0.9016889;0;2.2;-0.00987112;2.249826;
637945358193756132;719.8632;10;3;3;0.2;1.4;2168;1.38376383763838;0.4499513;2.036231;0.4153503;2.113887;-0.2394138;0.8422151;-0.2276052;0.9016889;
637945358208203656;721.2954;10;3;3;0.2;1.4;1427;2.10231254379818;-0.6062176;1.15;-0.5867562;1.192822;0.4499513;2.036231;0.4153503;2.113887;
637945358220195756;722.495;10;3;3;0.2;1.4;1200;2.5;0.6893654;1.621554;0.6066887;1.652035;-0.6062176;1.15;-0.5867562;1.192822;
637945358236188552;724.0942;10;3;3;0.2;1.4;1599;1.87617260787993;-0.6893655;1.621553;-0.6624786;1.634714;0.6893654;1.621554;0.6066887;1.652035;
637945358245265284;725.003;10;3;3;0.2;1.4;909;3.3003300330033;0.6062179;1.15;0.5848356;1.176566;-0.6893655;1.621553;-0.6624786;1.634714;
637945358255272484;726.0038;10;3;3;0.2;1.4;1001;2.997002997003;-0.4499517;2.036231;-0.4892115;2.034877;0.6062179;1.15;0.5848356;1.176566;
637945358265264231;727.0023;10;3;3;0.2;1.4;999;3.003003003003;0.2394144;0.8422153;0.1728007;0.8727039;-0.4499517;2.036231;-0.4892115;2.034877;
637945358303226076;730.7995;10;3;4.5;0.1;2.2;2088;2.1551724137931;-0.3762217;0.4663379;-0.3725815;0.516121;0;2.6;0.005496899;2.559722;
637945358331470679;733.6223;10;3;4.5;0.1;2.2;2823;1.59404888416578;0.7070663;2.342649;0.6765444;2.352993;-0.3762217;0.4663379;-0.3725815;0.516121;
637945358352334333;735.7097;10;3;4.5;0.1;2.2;2087;2.15620507906085;-0.9526277;0.9499994;-0.9839808;0.9787061;0.7070663;2.342649;0.6765444;2.352993;
637945358368319428;737.3083;10;3;4.5;0.1;2.2;1599;2.81425891181989;1.083289;1.691013;1.037513;1.707161;-0.9526277;0.9499994;-0.9839808;0.9787061;
637945358402517751;740.7283;10;3;4.5;0.1;2.2;3420;1.31578947368421;-1.083289;1.691012;-1.052682;1.698193;1.083289;1.691013;1.037513;1.707161;
637945358419410951;742.4177;10;3;4.5;0.1;2.2;1689;2.66429840142096;0.9526281;0.9500003;0.9464173;0.9853467;-1.083289;1.691012;-1.052682;1.698193;
637945358434343563;743.9099;10;3;4.5;0.1;2.2;1492;3.01608579088472;-0.7070671;2.342648;-0.6788557;2.367507;0.9526281;0.9500003;0.9464173;0.9853467;
637945358450485200;745.5254;10;3;4.5;0.1;2.2;1616;2.78465346534653;0.3762226;0.4663382;0.3434032;0.4872426;-0.7070671;2.342648;-0.6788557;2.367507;
637945358466482997;747.1249;10;3;2;0.6;1.8;800;2.5;-0.3078177;0.6542765;-0.1666726;0.8875151;0;2.4;-0.01966614;2.481634;
637945358474839458;747.9598;10;3;2;0.6;1.8;835;2.39520958083832;0.5785087;2.18944;0.7906764;2.101455;-0.3078177;0.6542765;-0.1666726;0.8875151;
637945358483375947;748.8122;10;3;2;0.6;1.8;852;2.34741784037559;-0.7794226;1.05;-0.8696611;1.267765;0.5785087;2.18944;0.7906764;2.101455;
637945358492419251;749.7186;10;3;2;0.6;1.8;906;2.2075055187638;0.8863269;1.656283;0.7295928;1.616145;-0.7794226;1.05;-0.8696611;1.267765;
637945358499698898;750.4458;10;3;2;0.6;1.8;727;2.75103163686382;-0.8863271;1.656283;-0.8182359;1.525447;0.8863269;1.656283;0.7295928;1.616145;
637945358505569924;751.0338;10;3;2;0.6;1.8;588;3.40136054421769;0.779423;1.05;0.7802402;1.171069;-0.8863271;1.656283;-0.8182359;1.525447;
637945358514456479;751.9224;10;3;2;0.6;1.8;889;2.24971878515186;-0.5785094;2.18944;-0.5815553;2.120274;0.779423;1.05;0.7802402;1.171069;
637945358522507884;752.7278;10;3;2;0.6;1.8;805;2.48447204968944;0.3078185;0.6542768;0.3087246;0.8211436;-0.5785094;2.18944;-0.5815553;2.120274;
637945358538450671;754.3215;10;3;2.5;0.3;1.4;897;2.78706800445931;-0.2394138;0.8422151;-0.2911485;0.9182993;0;2.2;-0.01581957;2.215183;
637945358553848585;755.8614;10;3;2.5;0.3;1.4;1540;1.62337662337662;0.4499513;2.036231;0.3734529;1.997083;-0.2394138;0.8422151;-0.2911485;0.9182993;
637945358564659400;756.9423;10;3;2.5;0.3;1.4;1078;2.31910946196661;-0.6062176;1.15;-0.5365264;1.205064;0.4499513;2.036231;0.3734529;1.997083;
637945358582647544;758.7409;10;3;2.5;0.3;1.4;1799;1.38966092273485;0.6893654;1.621554;0.5944911;1.625095;-0.6062176;1.15;-0.5365264;1.205064;
637945358590623933;759.5377;10;3;2.5;0.3;1.4;797;3.13676286072773;-0.6893655;1.621553;-0.8044364;1.673418;0.6893654;1.621554;0.5944911;1.625095;
637945358601634825;760.64;10;3;2.5;0.3;1.4;1102;2.26860254083485;0.6062179;1.15;0.5093564;1.263528;-0.6893655;1.621553;-0.8044364;1.673418;
637945358610521551;761.5288;10;3;2.5;0.3;1.4;889;2.81214848143982;-0.4499517;2.036231;-0.4067805;1.987953;0.6062179;1.15;0.5093564;1.263528;
637945358620518751;762.5284;10;3;2.5;0.3;1.4;1000;2.5;0.2394144;0.8422153;0.1623276;0.912834;-0.4499517;2.036231;-0.4067805;1.987953;
637945358634626216;763.9388;10;3;1.5;1.1;2;600;2.5;-0.3420197;0.5603072;-0.004828157;0.8574409;0;2.5;-0.003462461;2.143464;
637945358643542772;764.8292;10;3;1.5;1.1;2;890;1.68539325842697;0.6427875;2.266045;0.4429481;1.9067;-0.3420197;0.5603072;-0.004828157;0.8574409;
637945358653499515;765.8268;10;3;1.5;1.1;2;998;1.50300601202405;-0.8660251;0.9999995;-0.4342701;1.317666;0.6427875;2.266045;0.4429481;1.9067;
637945358659530566;766.428;10;3;1.5;1.1;2;601;2.49584026622296;0.9848077;1.673648;0.8016935;1.567966;-0.8660251;0.9999995;-0.4342701;1.317666;
637945358668607627;767.3373;10;3;1.5;1.1;2;909;1.65016501650165;-0.9848078;1.673648;-0.6575567;1.615798;0.9848077;1.673648;0.8016935;1.567966;
637945358676604026;768.1368;10;3;1.5;1.1;2;799;1.87734668335419;0.8660256;1;0.8275449;1.345767;-0.9848078;1.673648;-0.6575567;1.615798;
637945358691484131;769.625;10;3;1.5;1.1;2;1488;1.00806451612903;-0.6427882;2.266044;-0.4974676;2.30731;0.8660256;1;0.8275449;1.345767;
637945358699695569;770.4458;10;3;1.5;1.1;2;821;1.82704019488429;0.3420205;0.5603075;0.1413691;0.833029;-0.6427882;2.266044;-0.4974676;2.30731;
637945360704414675;970.916;10;4;2;0.6;1.8;689;2.90275761973875;-0.3078177;0.6542765;-0.3174599;0.656056;0;2.4;0.02731195;2.226567;
637945360712401073;971.715;10;4;2;0.6;1.8;799;2.50312891113892;0.5785087;2.18944;0.5166433;2.234097;-0.3078177;0.6542765;-0.3174599;0.656056;
637945360720397647;972.5146;10;4;2;0.6;1.8;800;2.5;-0.7794226;1.05;-0.7086019;1.17181;0.5785087;2.18944;0.5166433;2.234097;
637945360726372684;973.1135;10;4;2;0.6;1.8;599;3.33889816360601;0.8863269;1.656283;0.8830225;1.708772;-0.7794226;1.05;-0.7086019;1.17181;
637945360734369084;973.913;10;4;2;0.6;1.8;799;2.50312891113892;-0.8863271;1.656283;-0.7639688;1.646947;0.8863269;1.656283;0.8830225;1.708772;
637945360743355660;974.8123;10;4;2;0.6;1.8;899;2.22469410456062;0.779423;1.05;0.8206192;1.212956;-0.8863271;1.656283;-0.7639688;1.646947;
637945360750382040;975.5127;10;4;2;0.6;1.8;700;2.85714285714286;-0.5785094;2.18944;-0.5469102;2.100053;0.779423;1.05;0.8206192;1.212956;
637945360758518466;976.3259;10;4;2;0.6;1.8;813;2.460024600246;0.3078185;0.6542768;0.2552832;0.8575594;-0.5785094;2.18944;-0.5469102;2.100053;
637945360774511257;977.926;10;4;2.5;0.3;1.4;913;2.7382256297919;-0.2394138;0.8422151;-0.1828102;0.8967443;0;2.2;-0.001864119;2.174836;
637945360780477306;978.5229;10;4;2.5;0.3;1.4;597;4.18760469011725;0.4499513;2.036231;0.5469506;2.07663;-0.2394138;0.8422151;-0.1828102;0.8967443;
637945360789353857;979.4118;10;4;2.5;0.3;1.4;889;2.81214848143982;-0.6062176;1.15;-0.5994187;1.118833;0.4499513;2.036231;0.5469506;2.07663;
637945360797340253;980.2103;10;4;2.5;0.3;1.4;798;3.1328320802005;0.6893654;1.621554;0.6112208;1.580578;-0.6062176;1.15;-0.5994187;1.118833;
637945360805338549;981.0102;10;4;2.5;0.3;1.4;800;3.125;-0.6893655;1.621553;-0.7760919;1.566032;0.6893654;1.621554;0.6112208;1.580578;
637945360812338423;981.7103;10;4;2.5;0.3;1.4;700;3.57142857142857;0.6062179;1.15;0.5573575;1.254329;-0.6893655;1.621553;-0.7760919;1.566032;
637945360820564861;982.533;10;4;2.5;0.3;1.4;823;3.03766707168894;-0.4499517;2.036231;-0.4408047;2.046931;0.6062179;1.15;0.5573575;1.254329;
637945360829446415;983.4214;10;4;2.5;0.3;1.4;888;2.81531531531532;0.2394144;0.8422153;0.226844;0.9841912;-0.4499517;2.036231;-0.4408047;2.046931;
637945360851439439;985.6204;10;4;3.5;0.2;2;1339;2.61389096340553;-0.3420197;0.5603072;-0.3209428;0.6287018;0;2.5;0.02263006;2.406391;
637945360860941102;986.5813;10;4;3.5;0.2;2;961;3.6420395421436;0.6427875;2.266045;0.6230702;2.327415;-0.3420197;0.5603072;-0.3209428;0.6287018;
637945360871427933;987.6193;10;4;3.5;0.2;2;1038;3.3718689788054;-0.8660251;0.9999995;-0.8251503;1.004954;0.6427875;2.266045;0.6230702;2.327415;
637945360889426081;989.4191;10;4;3.5;0.2;2;1800;1.94444444444444;0.9848077;1.673648;0.9165846;1.679407;-0.8660251;0.9999995;-0.8251503;1.004954;
637945360898427655;990.3195;10;4;3.5;0.2;2;900;3.88888888888889;-0.9848078;1.673648;-0.9275412;1.650473;0.9848077;1.673648;0.9165846;1.679407;
637945360910639789;991.5395;10;4;3.5;0.2;2;1220;2.86885245901639;0.8660256;1;0.8245564;1.065971;-0.9848078;1.673648;-0.9275412;1.650473;
637945360924397194;992.9162;10;4;3.5;0.2;2;1377;2.54175744371823;-0.6427882;2.266044;-0.5593562;2.250813;0.8660256;1;0.8245564;1.065971;
637945360945490881;995.0261;10;4;3.5;0.2;2;2110;1.65876777251185;0.3420205;0.5603075;0.3452582;0.5951194;-0.6427882;2.266044;-0.5593562;2.250813;
637945360972480771;997.7246;10;4;4.5;0.1;2.2;1589;2.83196979232222;-0.3762217;0.4663379;-0.3273551;0.4578074;0;2.6;-0.0130903;2.598265;
637945360987578414;999.2344;10;4;4.5;0.1;2.2;1510;2.98013245033113;0.7070663;2.342649;0.695736;2.311345;-0.3762217;0.4663379;-0.3273551;0.4578074;
637945361014563812;1001.933;10;4;4.5;0.1;2.2;2699;1.66728417932568;-0.9526277;0.9499994;-0.9321666;0.9578127;0.7070663;2.342649;0.695736;2.311345;
637945361025540736;1003.031;10;4;4.5;0.1;2.2;1098;4.09836065573771;1.083289;1.691013;1.03922;1.710777;-0.9526277;0.9499994;-0.9321666;0.9578127;
637945361044519050;1004.927;10;4;4.5;0.1;2.2;1896;2.37341772151899;-1.083289;1.691012;-1.052618;1.672085;1.083289;1.691013;1.03922;1.710777;
637945361062682225;1006.744;10;4;4.5;0.1;2.2;1817;2.47660979636764;0.9526281;0.9500003;0.9197659;0.9760147;-1.083289;1.691012;-1.052618;1.672085;
637945361076644264;1008.141;10;4;4.5;0.1;2.2;1397;3.22118826055834;-0.7070671;2.342648;-0.6624448;2.335385;0.9526281;0.9500003;0.9197659;0.9760147;
637945361092522038;1009.729;10;4;4.5;0.1;2.2;1588;2.83375314861461;0.3762226;0.4663382;0.4154074;0.4618754;-0.7070671;2.342648;-0.6624448;2.335385;
637945361110545349;1011.53;10;4;3;0.2;1.4;938;3.19829424307036;-0.2394138;0.8422151;-0.2543942;0.886012;0;2.2;0.05563552;2.116964;
637945361122552448;1012.731;10;4;3;0.2;1.4;1201;2.49791840133222;0.4499513;2.036231;0.4398858;2.089691;-0.2394138;0.8422151;-0.2543942;0.886012;
637945361135614736;1014.038;10;4;3;0.2;1.4;1307;2.29533282325937;-0.6062176;1.15;-0.6547886;1.119872;0.4499513;2.036231;0.4398858;2.089691;
637945361144731803;1014.95;10;4;3;0.2;1.4;912;3.28947368421053;0.6893654;1.621554;0.6336837;1.622438;-0.6062176;1.15;-0.6547886;1.119872;
637945361155603883;1016.037;10;4;3;0.2;1.4;1087;2.75988960441582;-0.6893655;1.621553;-0.6061392;1.621272;0.6893654;1.621554;0.6336837;1.622438;
637945361164525652;1016.928;10;4;3;0.2;1.4;891;3.36700336700337;0.6062179;1.15;0.5720528;1.164486;-0.6893655;1.621553;-0.6061392;1.621272;
637945361181723625;1018.647;10;4;3;0.2;1.4;1719;1.74520069808028;-0.4499517;2.036231;-0.4992616;2.032481;0.6062179;1.15;0.5720528;1.164486;
637945361201569556;1020.634;10;4;3;0.2;1.4;1986;1.51057401812689;0.2394144;0.8422153;0.2427512;0.8804219;-0.4499517;2.036231;-0.4992616;2.032481;
637945361232019687;1023.69;10;4;4;0.1;1.4;987;4.05268490374873;-0.2394138;0.8422151;-0.2788635;0.8238956;0;2.2;-0.007706969;2.154664;
637945361245562060;1025.033;10;4;4;0.1;1.4;1343;2.97840655249442;0.4499513;2.036231;0.4300813;2.028838;-0.2394138;0.8422151;-0.2788635;0.8238956;
637945361257124078;1026.2;10;4;4;0.1;1.4;1167;3.42759211653813;-0.6062176;1.15;-0.5610611;1.128707;0.4499513;2.036231;0.4300813;2.028838;
637945361268866135;1027.363;10;4;4;0.1;1.4;1164;3.43642611683849;0.6893654;1.621554;0.6601213;1.650966;-0.6062176;1.15;-0.5610611;1.128707;
637945361278882887;1028.365;10;4;4;0.1;1.4;1001;3.996003996004;-0.6893655;1.621553;-0.6985903;1.657615;0.6893654;1.621554;0.6601213;1.650966;
637945361293639756;1029.839;10;4;4;0.1;1.4;1475;2.71186440677966;0.6062179;1.15;0.5963745;1.171436;-0.6893655;1.621553;-0.6985903;1.657615;
637945361313643253;1031.84;10;4;4;0.1;1.4;2001;1.99900049975012;-0.4499517;2.036231;-0.4571006;2.043712;0.6062179;1.15;0.5963745;1.171436;
637945361337005506;1034.188;10;4;4;0.1;1.4;2347;1.70430336599915;0.2394144;0.8422153;0.2050372;0.8784535;-0.4499517;2.036231;-0.4571006;2.043712;
637945361352750052;1035.752;10;4;1.5;1.1;2;800;1.875;-0.3420197;0.5603072;-0.2010193;0.9678916;0;2.5;-0.03916307;2.245992;
637945361359617550;1036.438;10;4;1.5;1.1;2;686;2.1865889212828;0.6427875;2.266045;0.4239055;2.051765;-0.3420197;0.5603072;-0.2010193;0.9678916;
637945361366733801;1037.15;10;4;1.5;1.1;2;712;2.10674157303371;-0.8660251;0.9999995;-0.7112293;1.290351;0.6427875;2.266045;0.4239055;2.051765;
637945361372739844;1037.75;10;4;1.5;1.1;2;600;2.5;0.9848077;1.673648;0.7508513;1.750241;-0.8660251;0.9999995;-0.7112293;1.290351;
637945361379606043;1038.437;10;4;1.5;1.1;2;687;2.18340611353712;-0.9848078;1.673648;-0.7382249;1.798383;0.9848077;1.673648;0.7508513;1.750241;
637945361387492610;1039.223;10;4;1.5;1.1;2;786;1.90839694656489;0.8660256;1;0.5883792;1.332329;-0.9848078;1.673648;-0.7382249;1.798383;
637945361393888727;1039.848;10;4;1.5;1.1;2;625;2.4;-0.6427882;2.266044;-0.3310213;2.204503;0.8660256;1;0.5883792;1.332329;
637945361401720101;1040.647;10;4;1.5;1.1;2;799;1.87734668335419;0.3420205;0.5603075;0.07524712;0.9364835;-0.6427882;2.266044;-0.3310213;2.204503;
637945362318173880;1132.291;10;5;2.5;0.3;1.4;911;2.74423710208562;-0.2394138;0.8422151;-0.275793;0.8888608;0;2.2;-0.03624038;2.225638;
637945362328193934;1133.293;10;5;2.5;0.3;1.4;1002;2.49500998003992;0.4499513;2.036231;0.3941554;2.006983;-0.2394138;0.8422151;-0.275793;0.8888608;
637945362338165672;1134.29;10;5;2.5;0.3;1.4;997;2.50752256770311;-0.6062176;1.15;-0.5914808;1.209137;0.4499513;2.036231;0.3941554;2.006983;
637945362346137065;1135.09;10;5;2.5;0.3;1.4;800;3.125;0.6893654;1.621554;0.6595637;1.594272;-0.6062176;1.15;-0.5914808;1.209137;
637945362355088633;1135.985;10;5;2.5;0.3;1.4;895;2.79329608938547;-0.6893655;1.621553;-0.6391112;1.577271;0.6893654;1.621554;0.6595637;1.594272;
637945362376117307;1138.089;10;5;2.5;0.3;1.4;2103;1.1887779362815;0.6062179;1.15;0.5526006;1.249897;-0.6893655;1.621553;-0.6391112;1.577271;
637945362384118708;1138.889;10;5;2.5;0.3;1.4;800;3.125;-0.4499517;2.036231;-0.5209147;2.058854;0.6062179;1.15;0.5526006;1.249897;
637945362393220295;1139.799;10;5;2.5;0.3;1.4;910;2.74725274725275;0.2394144;0.8422153;0.204292;0.9221216;-0.4499517;2.036231;-0.5209147;2.058854;
637945362418104645;1142.287;10;5;2;0.6;1.8;800;2.5;-0.3078177;0.6542765;-0.3221321;0.7415417;0;2.4;0.02013247;2.402574;
637945362426201063;1143.097;10;5;2;0.6;1.8;809;2.47218788627936;0.5785087;2.18944;0.4535615;2.255322;-0.3078177;0.6542765;-0.3221321;0.7415417;
637945362435122618;1143.987;10;5;2;0.6;1.8;884;2.26244343891403;-0.7794226;1.05;-0.6226473;1.172364;0.5785087;2.18944;0.4535615;2.255322;
637945362444194208;1144.896;10;5;2;0.6;1.8;909;2.2002200220022;0.8863269;1.656283;0.7158489;1.64379;-0.7794226;1.05;-0.6226473;1.172364;
637945362451225437;1145.598;10;5;2;0.6;1.8;702;2.84900284900285;-0.8863271;1.656283;-0.8307343;1.670932;0.8863269;1.656283;0.7158489;1.64379;
637945362460091990;1146.486;10;5;2;0.6;1.8;888;2.25225225225225;0.779423;1.05;0.6322654;1.213395;-0.8863271;1.656283;-0.8307343;1.670932;
637945362468373403;1147.314;10;5;2;0.6;1.8;828;2.41545893719807;-0.5785094;2.18944;-0.5211;2.147866;0.779423;1.05;0.6322654;1.213395;
637945362480290739;1148.505;10;5;2;0.6;1.8;1192;1.67785234899329;0.3078185;0.6542768;0.2303499;0.8675624;-0.5785094;2.18944;-0.5211;2.147866;
637945362520159270;1152.493;10;5;4;0.1;1.4;2988;1.33868808567604;-0.2394138;0.8422151;-0.2447263;0.8707876;0;2.2;0.001287851;2.156769;
637945362536147205;1154.091;10;5;4;0.1;1.4;1599;2.50156347717323;0.4499513;2.036231;0.4387992;2.01347;-0.2394138;0.8422151;-0.2447263;0.8707876;
637945362559471793;1156.424;10;5;4;0.1;1.4;2324;1.72117039586919;-0.6062176;1.15;-0.5697612;1.170626;0.4499513;2.036231;0.4387992;2.01347;
637945362578189670;1158.296;10;5;4;0.1;1.4;1872;2.13675213675214;0.6893654;1.621554;0.6466977;1.611978;-0.6062176;1.15;-0.5697612;1.170626;
637945362612334558;1161.709;10;5;4;0.1;1.4;3414;1.17164616285882;-0.6893655;1.621553;-0.6577381;1.601304;0.6893654;1.621554;0.6466977;1.611978;
637945362628339637;1163.31;10;5;4;0.1;1.4;1600;2.5;0.6062179;1.15;0.5611885;1.168251;-0.6893655;1.621553;-0.6577381;1.601304;
637945362643440054;1164.821;10;5;4;0.1;1.4;1511;2.64725347452019;-0.4499517;2.036231;-0.4444602;1.995682;0.6062179;1.15;0.5611885;1.168251;
637945362667574270;1167.245;10;5;4;0.1;1.4;2424;1.65016501650165;0.2394144;0.8422153;0.2332956;0.8914806;-0.4499517;2.036231;-0.4444602;1.995682;
637945362694268496;1169.903;10;5;3.5;0.2;2;1097;3.19051959890611;-0.3420197;0.5603072;-0.3198833;0.6557536;0;2.5;-0.007323319;2.518964;
637945362722403627;1172.717;10;5;3.5;0.2;2;2814;1.24378109452736;0.6427875;2.266045;0.5665621;2.203166;-0.3420197;0.5603072;-0.3198833;0.6557536;
637945362741394113;1174.616;10;5;3.5;0.2;2;1897;1.8450184501845;-0.8660251;0.9999995;-0.8227981;1.046903;0.6427875;2.266045;0.5665621;2.203166;
637945362757374244;1176.214;10;5;3.5;0.2;2;1598;2.19023779724656;0.9848077;1.673648;0.9295478;1.638029;-0.8660251;0.9999995;-0.8227981;1.046903;
637945362772383195;1177.713;10;5;3.5;0.2;2;1499;2.33488992661775;-0.9848078;1.673648;-0.9017016;1.663742;0.9848077;1.673648;0.9295478;1.638029;
637945362785355465;1179.012;10;5;3.5;0.2;2;1299;2.69438029253272;0.8660256;1;0.7913952;1.054764;-0.9848078;1.673648;-0.9017016;1.663742;
637945362796367388;1180.112;10;5;3.5;0.2;2;1100;3.18181818181818;-0.6427882;2.266044;-0.6993957;2.279106;0.8660256;1;0.7913952;1.054764;
637945362809464682;1181.423;10;5;3.5;0.2;2;1312;2.66768292682927;0.3420205;0.5603075;0.3436497;0.6101598;-0.6427882;2.266044;-0.6993957;2.279106;
637945362834489843;1183.923;10;5;3;0.2;1.4;1301;2.30591852421214;-0.2394138;0.8422151;-0.275815;0.9331982;0;2.2;0.03418273;2.158079;
637945362847452113;1185.222;10;5;3;0.2;1.4;1298;2.31124807395994;0.4499513;2.036231;0.4111669;1.989451;-0.2394138;0.8422151;-0.275815;0.9331982;
637945362860324362;1186.509;10;5;3;0.2;1.4;1287;2.33100233100233;-0.6062176;1.15;-0.5555699;1.199025;0.4499513;2.036231;0.4111669;1.989451;
637945362878482537;1188.321;10;5;3;0.2;1.4;1812;1.65562913907285;0.6893654;1.621554;0.7036014;1.58806;-0.6062176;1.15;-0.5555699;1.199025;
637945362900443527;1190.52;10;5;3;0.2;1.4;2199;1.36425648021828;-0.6893655;1.621553;-0.6518387;1.588924;0.6893654;1.621554;0.7036014;1.58806;
637945362913409141;1191.818;10;5;3;0.2;1.4;1297;2.3130300693909;0.6062179;1.15;0.5291309;1.15546;-0.6893655;1.621553;-0.6518387;1.588924;
637945362926531436;1193.13;10;5;3;0.2;1.4;1312;2.28658536585366;-0.4499517;2.036231;-0.4389239;2.029767;0.6062179;1.15;0.5291309;1.15546;
637945362947414627;1195.218;10;5;3;0.2;1.4;2089;1.43609382479655;0.2394144;0.8422153;0.2352835;0.9169221;-0.4499517;2.036231;-0.4389239;2.029767;
637945362978394603;1198.315;10;5;4.5;0.1;2.2;1587;2.83553875236295;-0.3762217;0.4663379;-0.3851345;0.4707025;0;2.6;-0.00261576;2.574448;
637945362991866955;1199.674;10;5;4.5;0.1;2.2;1359;3.3112582781457;0.7070663;2.342649;0.6774136;2.302509;-0.3762217;0.4663379;-0.3851345;0.4707025;
637945363008469858;1201.324;10;5;4.5;0.1;2.2;1650;2.72727272727273;-0.9526277;0.9499994;-0.9125815;0.9612228;0.7070663;2.342649;0.6774136;2.302509;
637945363024234893;1202.911;10;5;4.5;0.1;2.2;1588;2.83375314861461;1.083289;1.691013;1.038636;1.710489;-0.9526277;0.9499994;-0.9125815;0.9612228;
637945363064491319;1206.923;10;5;4.5;0.1;2.2;4012;1.12163509471585;-1.083289;1.691012;-1.040398;1.706675;1.083289;1.691013;1.038636;1.710489;
637945363094544165;1209.931;10;5;4.5;0.1;2.2;3008;1.49601063829787;0.9526281;0.9500003;0.9315398;0.9490503;-1.083289;1.691012;-1.040398;1.706675;
637945363148510230;1215.328;10;5;4.5;0.1;2.2;5397;0.833796553640912;-0.7070671;2.342648;-0.69862;2.324763;0.9526281;0.9500003;0.9315398;0.9490503;
637945363169504636;1217.427;10;5;4.5;0.1;2.2;2099;2.14387803716055;0.3762226;0.4663382;0.3447144;0.4449584;-0.7070671;2.342648;-0.69862;2.324763;
637945363185492433;1219.026;10;5;1.5;1.1;2;800;1.875;-0.3420197;0.5603072;-0.2775367;0.8897004;0;2.5;-0.05448799;2.317888;
637945363194644033;1219.94;10;5;1.5;1.1;2;914;1.64113785557987;0.6427875;2.266045;0.4806515;2.061576;-0.3420197;0.5603072;-0.2775367;0.8897004;
637945363201715274;1220.648;10;5;1.5;1.1;2;708;2.11864406779661;-0.8660251;0.9999995;-0.6770037;1.24929;0.6427875;2.266045;0.4806515;2.061576;
637945363207731321;1221.248;10;5;1.5;1.1;2;600;2.5;0.9848077;1.673648;0.9388914;1.652839;-0.8660251;0.9999995;-0.6770037;1.24929;
637945363212912230;1221.779;10;5;1.5;1.1;2;531;2.82485875706215;-0.9848078;1.673648;-0.592204;1.751021;0.9848077;1.673648;0.9388914;1.652839;
637945363222588544;1222.736;10;5;1.5;1.1;2;957;1.56739811912226;0.8660256;1;0.6260473;1.146993;-0.9848078;1.673648;-0.592204;1.751021;
637945363228618541;1223.335;10;5;1.5;1.1;2;600;2.5;-0.6427882;2.266044;-0.4721971;2.139588;0.8660256;1;0.6260473;1.146993;
637945363235589254;1224.035;10;5;1.5;1.1;2;699;2.14592274678112;0.3420205;0.5603075;0.2300928;0.6894133;-0.6427882;2.266044;-0.4721971;2.139588;
637945364226110861;1323.087;10;6;4.5;0.1;2.2;5598;0.803858520900322;-0.3762217;0.4663379;-0.3739925;0.4938676;0;2.6;0.003698513;2.583139;
637945364246526150;1325.141;10;6;4.5;0.1;2.2;2053;2.19191427179737;0.7070663;2.342649;0.6863562;2.304888;-0.3762217;0.4663379;-0.3739925;0.4938676;
637945364271080697;1327.585;10;6;4.5;0.1;2.2;2444;1.84124386252046;-0.9526277;0.9499994;-0.921167;0.9345442;0.7070663;2.342649;0.6863562;2.304888;
637945364285219170;1328.997;10;6;4.5;0.1;2.2;1413;3.18471337579618;1.083289;1.691013;1.063936;1.702973;-0.9526277;0.9499994;-0.921167;0.9345442;
637945364300091767;1330.484;10;6;4.5;0.1;2.2;1487;3.02622730329522;-1.083289;1.691012;-1.041793;1.690115;1.083289;1.691013;1.063936;1.702973;
637945364334153432;1333.892;10;6;4.5;0.1;2.2;3408;1.32042253521127;0.9526281;0.9500003;0.9658738;0.962575;-1.083289;1.691012;-1.041793;1.690115;
637945364350145497;1335.491;10;6;4.5;0.1;2.2;1599;2.81425891181989;-0.7070671;2.342648;-0.7023464;2.32961;0.9526281;0.9500003;0.9658738;0.962575;
637945364365573357;1337.045;10;6;4.5;0.1;2.2;1554;2.8957528957529;0.3762226;0.4663382;0.3324016;0.4870069;-0.7070671;2.342648;-0.7023464;2.32961;
637945364387172934;1339.194;10;6;3;0.2;1.4;902;3.32594235033259;-0.2394138;0.8422151;-0.1879148;0.9275318;0;2.2;0.03305886;2.16704;
637945364400125204;1340.489;10;6;3;0.2;1.4;1295;2.31660231660232;0.4499513;2.036231;0.4236618;2.01051;-0.2394138;0.8422151;-0.1879148;0.9275318;
637945364413092465;1341.786;10;6;3;0.2;1.4;1297;2.3130300693909;-0.6062176;1.15;-0.5771197;1.204692;0.4499513;2.036231;0.4236618;2.01051;
637945364424059384;1342.883;10;6;3;0.2;1.4;1097;2.73473108477666;0.6893654;1.621554;0.5917976;1.600316;-0.6062176;1.15;-0.5771197;1.204692;
637945364438254876;1344.302;10;6;3;0.2;1.4;1409;2.1291696238467;-0.6893655;1.621553;-0.600104;1.601571;0.6893654;1.621554;0.5917976;1.600316;
637945364463104221;1346.787;10;6;3;0.2;1.4;2485;1.20724346076459;0.6062179;1.15;0.5999246;1.129928;-0.6893655;1.621553;-0.600104;1.601571;
637945364476101707;1348.087;10;6;3;0.2;1.4;1299;2.3094688221709;-0.4499517;2.036231;-0.3876547;1.978443;0.6062179;1.15;0.5999246;1.129928;
637945364493104677;1349.786;10;6;3;0.2;1.4;1699;1.76574455562095;0.2394144;0.8422153;0.1962718;0.8721893;-0.4499517;2.036231;-0.3876547;1.978443;
637945364508083731;1351.285;10;6;2;0.6;1.8;687;2.91120815138282;-0.3078177;0.6542765;-0.3691322;0.709329;0;2.4;-0.02433478;2.292159;
637945364516290163;1352.105;10;6;2;0.6;1.8;820;2.4390243902439;0.5785087;2.18944;0.3751218;2.062083;-0.3078177;0.6542765;-0.3691322;0.709329;
637945364524291560;1352.905;10;6;2;0.6;1.8;800;2.5;-0.7794226;1.05;-0.7007362;1.102852;0.5785087;2.18944;0.3751218;2.062083;
637945364532137928;1353.69;10;6;2;0.6;1.8;785;2.54777070063694;0.8863269;1.656283;0.724336;1.610133;-0.7794226;1.05;-0.7007362;1.102852;
637945364539268550;1354.403;10;6;2;0.6;1.8;713;2.80504908835905;-0.8863271;1.656283;-0.9263825;1.501836;0.8863269;1.656283;0.724336;1.610133;
637945364546164758;1355.093;10;6;2;0.6;1.8;690;2.89855072463768;0.779423;1.05;0.7447317;1.247762;-0.8863271;1.656283;-0.9263825;1.501836;
637945364553266002;1355.803;10;6;2;0.6;1.8;710;2.8169014084507;-0.5785094;2.18944;-0.4914874;2.047786;0.779423;1.05;0.7447317;1.247762;
637945364561267400;1356.603;10;6;2;0.6;1.8;800;2.5;0.3078185;0.6542768;0.2932537;0.7181764;-0.5785094;2.18944;-0.4914874;2.047786;
637945364598368769;1360.312;10;6;4;0.1;1.4;1852;2.15982721382289;-0.2394138;0.8422151;-0.2163715;0.8853073;0;2.2;-0.02312775;2.158431;
637945364618897862;1362.378;10;6;4;0.1;1.4;2065;1.93704600484262;0.4499513;2.036231;0.4099713;2.0062;-0.2394138;0.8422151;-0.2163715;0.8853073;
637945364630244843;1363.501;10;6;4;0.1;1.4;1123;3.56188780053428;-0.6062176;1.15;-0.6103753;1.170481;0.4499513;2.036231;0.4099713;2.0062;
637945364656184380;1366.095;10;6;4;0.1;1.4;2593;1.54261473197069;0.6893654;1.621554;0.6663187;1.633407;-0.6062176;1.15;-0.6103753;1.170481;
637945364673245339;1367.8;10;6;4;0.1;1.4;1705;2.34604105571848;-0.6893655;1.621553;-0.6621441;1.639284;0.6893654;1.621554;0.6663187;1.633407;
637945364689203127;1369.397;10;6;4;0.1;1.4;1597;2.50469630557295;0.6062179;1.15;0.5771856;1.162594;-0.6893655;1.621553;-0.6621441;1.639284;
637945364706426138;1371.119;10;6;4;0.1;1.4;1722;2.32288037166086;-0.4499517;2.036231;-0.4183026;2.033092;0.6062179;1.15;0.5771856;1.162594;
637945364722273911;1372.704;10;6;4;0.1;1.4;1584;2.52525252525253;0.2394144;0.8422153;0.2329068;0.8800863;-0.4499517;2.036231;-0.4183026;2.033092;
637945364742289307;1374.705;10;6;2.5;0.3;1.4;1108;2.25631768953069;-0.2394138;0.8422151;-0.1858886;0.9307066;0;2.2;0.002390428;2.188647;
637945364767393698;1377.216;10;6;2.5;0.3;1.4;2510;0.99601593625498;0.4499513;2.036231;0.4491029;2.027302;-0.2394138;0.8422151;-0.1858886;0.9307066;
637945364775385094;1378.015;10;6;2.5;0.3;1.4;799;3.12891113892365;-0.6062176;1.15;-0.5110976;1.114681;0.4499513;2.036231;0.4491029;2.027302;
637945364789384261;1379.415;10;6;2.5;0.3;1.4;1400;1.78571428571429;0.6893654;1.621554;0.6097908;1.704439;-0.6062176;1.15;-0.5110976;1.114681;
637945364798259281;1380.302;10;6;2.5;0.3;1.4;888;2.81531531531532;-0.6893655;1.621553;-0.6239268;1.638178;0.6893654;1.621554;0.6097908;1.704439;
637945364807205854;1381.197;10;6;2.5;0.3;1.4;895;2.79329608938547;0.6062179;1.15;0.5352508;1.259488;-0.6893655;1.621553;-0.6239268;1.638178;
637945364815252588;1382.002;10;6;2.5;0.3;1.4;804;3.10945273631841;-0.4499517;2.036231;-0.4903761;2.035558;0.6062179;1.15;0.5352508;1.259488;
637945364824359178;1382.912;10;6;2.5;0.3;1.4;910;2.74725274725275;0.2394144;0.8422153;0.240023;0.9852657;-0.4499517;2.036231;-0.4903761;2.035558;
637945364848235352;1385.3;10;6;3.5;0.2;2;1091;3.20806599450046;-0.3420197;0.5603072;-0.2922794;0.613116;0;2.5;-0.009328261;2.506586;
637945364862227794;1386.699;10;6;3.5;0.2;2;1399;2.50178699070765;0.6427875;2.266045;0.5576815;2.222378;-0.3420197;0.5603072;-0.2922794;0.613116;
637945364876259138;1388.102;10;6;3.5;0.2;2;1397;2.50536864710093;-0.8660251;0.9999995;-0.8427741;1.050492;0.6427875;2.266045;0.5576815;2.222378;
637945364888315384;1389.308;10;6;3.5;0.2;2;1205;2.9045643153527;0.9848077;1.673648;0.8993345;1.649368;-0.8660251;0.9999995;-0.8427741;1.050492;
637945364901447899;1390.621;10;6;3.5;0.2;2;1314;2.66362252663623;-0.9848078;1.673648;-0.9216028;1.691433;0.9848077;1.673648;0.8993345;1.649368;
637945364913309149;1391.807;10;6;3.5;0.2;2;1173;2.98380221653879;0.8660256;1;0.8383199;1.038235;-0.9848078;1.673648;-0.9216028;1.691433;
637945364925304511;1393.007;10;6;3.5;0.2;2;1200;2.91666666666667;-0.6427882;2.266044;-0.5758296;2.295998;0.8660256;1;0.8383199;1.038235;
637945364938443385;1394.319;10;6;3.5;0.2;2;1312;2.66768292682927;0.3420205;0.5603075;0.3827796;0.6290873;-0.6427882;2.266044;-0.5758296;2.295998;
637945364953324599;1395.808;10;6;1.5;1.1;2;652;2.30061349693252;-0.3420197;0.5603072;-0.4354751;0.9043763;0;2.5;-0.07274164;2.315275;
637945364960416151;1396.518;10;6;1.5;1.1;2;710;2.11267605633803;0.6427875;2.266045;0.5439745;2.023453;-0.3420197;0.5603072;-0.4354751;0.9043763;
637945364967407373;1397.218;10;6;1.5;1.1;2;699;2.14592274678112;-0.8660251;0.9999995;-0.8150808;1.251311;0.6427875;2.266045;0.5439745;2.023453;
637945364974553622;1397.929;10;6;1.5;1.1;2;712;2.10674157303371;0.9848077;1.673648;0.7442202;1.663484;-0.8660251;0.9999995;-0.8150808;1.251311;
637945364982535016;1398.729;10;6;1.5;1.1;2;800;1.875;-0.9848078;1.673648;-0.6459661;1.701309;0.9848077;1.673648;0.7442202;1.663484;
637945364988501061;1399.327;10;6;1.5;1.1;2;597;2.51256281407035;0.8660256;1;0.7128454;1.207132;-0.9848078;1.673648;-0.6459661;1.701309;
637945364996492458;1400.126;10;6;1.5;1.1;2;799;1.87734668335419;-0.6427882;2.266044;-0.7026128;2.271136;0.8660256;1;0.7128454;1.207132;
637945365003418669;1400.819;10;6;1.5;1.1;2;693;2.16450216450216;0.3420205;0.5603075;0.2384508;0.9560374;-0.6427882;2.266044;-0.7026128;2.271136;
637945365910828785;1491.559;10;7;3;0.2;1.4;910;3.2967032967033;-0.2394138;0.8422151;-0.1816887;0.8307959;0;2.2;-0.004421925;2.130985;
637945365920723809;1492.547;10;7;3;0.2;1.4;988;3.03643724696356;0.4499513;2.036231;0.4324972;2.132706;-0.2394138;0.8422151;-0.1816887;0.8307959;
637945365931814154;1493.658;10;7;3;0.2;1.4;1111;2.7002700270027;-0.6062176;1.15;-0.6098638;1.181005;0.4499513;2.036231;0.4324972;2.132706;
637945365942709591;1494.746;10;7;3;0.2;1.4;1088;2.75735294117647;0.6893654;1.621554;0.5969388;1.60629;-0.6062176;1.15;-0.6098638;1.181005;
637945365951666161;1495.643;10;7;3;0.2;1.4;897;3.34448160535117;-0.6893655;1.621553;-0.7238533;1.677179;0.6893654;1.621554;0.5969388;1.60629;
637945365960683089;1496.545;10;7;3;0.2;1.4;902;3.32594235033259;0.6062179;1.15;0.5492575;1.133912;-0.6893655;1.621553;-0.7238533;1.677179;
637945365972800207;1497.757;10;7;3;0.2;1.4;1212;2.47524752475248;-0.4499517;2.036231;-0.3963757;2.042951;0.6062179;1.15;0.5492575;1.133912;
637945365985897500;1499.067;10;7;3;0.2;1.4;1310;2.29007633587786;0.2394144;0.8422153;0.2361886;0.9364542;-0.4499517;2.036231;-0.3963757;2.042951;
637945366016827907;1502.157;10;7;4.5;0.1;2.2;1912;2.35355648535565;-0.3762217;0.4663379;-0.3655901;0.5083009;0;2.6;0.02550309;2.59063;
637945366033239890;1503.812;10;7;4.5;0.1;2.2;1654;2.72067714631197;0.7070663;2.342649;0.6766232;2.303081;-0.3762217;0.4663379;-0.3655901;0.5083009;
637945366071856640;1507.662;10;7;4.5;0.1;2.2;3850;1.16883116883117;-0.9526277;0.9499994;-0.9376951;0.9804633;0.7070663;2.342649;0.6766232;2.303081;
637945366086749243;1509.152;10;7;4.5;0.1;2.2;1490;3.02013422818792;1.083289;1.691013;1.042465;1.696214;-0.9526277;0.9499994;-0.9376951;0.9804633;
637945366106756875;1511.151;10;7;4.5;0.1;2.2;1991;2.26017076845806;-1.083289;1.691012;-1.05584;1.677533;1.083289;1.691013;1.042465;1.696214;
637945366126748379;1513.149;10;7;4.5;0.1;2.2;1998;2.25225225225225;0.9526281;0.9500003;0.9328316;0.9837644;-1.083289;1.691012;-1.05584;1.677533;
637945366143821366;1514.859;10;7;4.5;0.1;2.2;1710;2.63157894736842;-0.7070671;2.342648;-0.670202;2.326477;0.9526281;0.9500003;0.9328316;0.9837644;
637945366159819164;1516.458;10;7;4.5;0.1;2.2;1600;2.8125;0.3762226;0.4663382;0.3696331;0.5092797;-0.7070671;2.342648;-0.670202;2.326477;
637945366174736771;1517.949;10;7;2;0.6;1.8;703;2.84495021337127;-0.3078177;0.6542765;-0.1539444;0.789999;0;2.4;0.0009525456;2.329575;
637945366182693163;1518.746;10;7;2;0.6;1.8;797;2.50941028858218;0.5785087;2.18944;0.5113078;2.072811;-0.3078177;0.6542765;-0.1539444;0.789999;
637945366190809583;1519.555;10;7;2;0.6;1.8;809;2.47218788627936;-0.7794226;1.05;-0.6148189;1.165979;0.5785087;2.18944;0.5113078;2.072811;
637945366197800802;1520.257;10;7;2;0.6;1.8;702;2.84900284900285;0.8863269;1.656283;0.8865163;1.562517;-0.7794226;1.05;-0.6148189;1.165979;
637945366204772021;1520.953;10;7;2;0.6;1.8;696;2.8735632183908;-0.8863271;1.656283;-0.6745719;1.60488;0.8863269;1.656283;0.8865163;1.562517;
637945366210798074;1521.556;10;7;2;0.6;1.8;603;3.3167495854063;0.779423;1.05;0.7753421;1.175017;-0.8863271;1.656283;-0.6745719;1.60488;
637945366218009334;1522.277;10;7;2;0.6;1.8;721;2.77392510402219;-0.5785094;2.18944;-0.4475629;2.118378;0.779423;1.05;0.7753421;1.175017;
637945366243789035;1524.855;10;7;2;0.6;1.8;2579;0.775494377665762;0.3078185;0.6542768;0.3377158;0.7346096;-0.5785094;2.18944;-0.4475629;2.118378;
637945366256911333;1526.167;10;7;1.5;1.1;2;712;2.10674157303371;-0.3420197;0.5603072;-0.1829668;0.9388787;0;2.5;-0.06403878;2.076043;
637945366262902377;1526.766;10;7;1.5;1.1;2;599;2.50417362270451;0.6427875;2.266045;0.4704746;2.140098;-0.3420197;0.5603072;-0.1829668;0.9388787;
637945366269788581;1527.455;10;7;1.5;1.1;2;689;2.17706821480406;-0.8660251;0.9999995;-0.7068;1.182555;0.6427875;2.266045;0.4704746;2.140098;
637945366276864818;1528.163;10;7;1.5;1.1;2;708;2.11864406779661;0.9848077;1.673648;0.6708191;1.552602;-0.8660251;0.9999995;-0.7068;1.182555;
637945366282865868;1528.763;10;7;1.5;1.1;2;600;2.5;-0.9848078;1.673648;-0.792668;1.717986;0.9848077;1.673648;0.6708191;1.552602;
637945366289772075;1529.454;10;7;1.5;1.1;2;690;2.17391304347826;0.8660256;1;0.7349292;1.371428;-0.9848078;1.673648;-0.792668;1.717986;
637945366294767951;1529.953;10;7;1.5;1.1;2;500;3;-0.6427882;2.266044;-0.4644131;2.184568;0.8660256;1;0.7349292;1.371428;
637945366301854190;1530.662;10;7;1.5;1.1;2;708;2.11864406779661;0.3420205;0.5603075;0.3239695;0.8919204;-0.6427882;2.266044;-0.4644131;2.184568;
637945366343888502;1534.863;10;7;4;0.1;1.4;1302;3.07219662058372;-0.2394138;0.8422151;-0.2193722;0.8782171;0;2.2;-0.02814128;2.18398;
637945366357945966;1536.271;10;7;4;0.1;1.4;1408;2.84090909090909;0.4499513;2.036231;0.4249654;2.007948;-0.2394138;0.8422151;-0.2193722;0.8782171;
637945366372953583;1537.772;10;7;4;0.1;1.4;1501;2.66489007328448;-0.6062176;1.15;-0.5779653;1.127405;0.4499513;2.036231;0.4249654;2.007948;
637945366385818809;1539.058;10;7;4;0.1;1.4;1287;3.10800310800311;0.6893654;1.621554;0.662951;1.618975;-0.6062176;1.15;-0.5779653;1.127405;
637945366397919835;1540.268;10;7;4;0.1;1.4;1210;3.30578512396694;-0.6893655;1.621553;-0.6569076;1.628766;0.6893654;1.621554;0.662951;1.618975;
637945366409836912;1541.461;10;7;4;0.1;1.4;1192;3.35570469798658;0.6062179;1.15;0.5787015;1.176627;-0.6893655;1.621553;-0.6569076;1.628766;
637945366422039423;1542.678;10;7;4;0.1;1.4;1217;3.28677074774034;-0.4499517;2.036231;-0.4410448;2.012085;0.6062179;1.15;0.5787015;1.176627;
637945366447893586;1545.266;10;7;4;0.1;1.4;2588;1.54559505409583;0.2394144;0.8422153;0.2286107;0.8733673;-0.4499517;2.036231;-0.4410448;2.012085;
637945366479990427;1548.475;10;7;3.5;0.2;2;2320;1.50862068965517;-0.3420197;0.5603072;-0.3356141;0.5839977;0;2.5;-0.01510452;2.574425;
637945366490907338;1549.566;10;7;3.5;0.2;2;1090;3.21100917431193;0.6427875;2.266045;0.583409;2.220984;-0.3420197;0.5603072;-0.3356141;0.5839977;
637945366505899960;1551.067;10;7;3.5;0.2;2;1501;2.33177881412392;-0.8660251;0.9999995;-0.8166254;1.043419;0.6427875;2.266045;0.583409;2.220984;
637945366517096918;1552.186;10;7;3.5;0.2;2;1119;3.1277926720286;0.9848077;1.673648;0.9001549;1.694503;-0.8660251;0.9999995;-0.8166254;1.043419;
637945366527968824;1553.273;10;7;3.5;0.2;2;1087;3.21987120515179;-0.9848078;1.673648;-0.8906348;1.653621;0.9848077;1.673648;0.9001549;1.694503;
637945366537963595;1554.273;10;7;3.5;0.2;2;1000;3.5;0.8660256;1;0.7778227;1.04705;-0.9848078;1.673648;-0.8906348;1.653621;
637945366550205741;1555.496;10;7;3.5;0.2;2;1224;2.85947712418301;-0.6427882;2.266044;-0.5802044;2.248312;0.8660256;1;0.7778227;1.04705;
637945366561073433;1556.584;10;7;3.5;0.2;2;1088;3.21691176470588;0.3420205;0.5603075;0.3063558;0.6440924;-0.6427882;2.266044;-0.5802044;2.248312;
637945366585082622;1558.984;10;7;2.5;0.3;1.4;1691;1.47841513897102;-0.2394138;0.8422151;-0.3492964;0.7942275;0;2.2;-0.02406019;2.159347;
637945366594164216;1559.892;10;7;2.5;0.3;1.4;908;2.75330396475771;0.4499513;2.036231;0.3949324;2.012512;-0.2394138;0.8422151;-0.3492964;0.7942275;
637945366602918382;1560.778;10;7;2.5;0.3;1.4;886;2.82167042889391;-0.6062176;1.15;-0.6527714;1.046711;0.4499513;2.036231;0.3949324;2.012512;
637945366611144440;1561.591;10;7;2.5;0.3;1.4;813;3.0750307503075;0.6893654;1.621554;0.6635314;1.581829;-0.6062176;1.15;-0.6527714;1.046711;
637945366618265685;1562.303;10;7;2.5;0.3;1.4;712;3.51123595505618;-0.6893655;1.621553;-0.5962383;1.653248;0.6893654;1.621554;0.6635314;1.581829;
637945366627082226;1563.185;10;7;2.5;0.3;1.4;882;2.83446712018141;0.6062179;1.15;0.5927527;1.15098;-0.6893655;1.621553;-0.5962383;1.653248;
637945366635143636;1563.991;10;7;2.5;0.3;1.4;806;3.10173697270471;-0.4499517;2.036231;-0.4340084;1.982471;0.6062179;1.15;0.5927527;1.15098;
637945366642243595;1564.701;10;7;2.5;0.3;1.4;710;3.52112676056338;0.2394144;0.8422153;0.2283613;0.9572635;-0.4499517;2.036231;-0.4340084;1.982471;
